UnixTime(ms),PosX,PosY,PosZ,OrientX,OrientY,OrientZ,OrientW
1756341641407,0.00312090,1.27701211,-0.00225377,0.16048417,-0.01843938,0.03424907,0.98627168
1756341641450,0.00318730,1.27695638,-0.00233781,0.16013534,-0.01866430,0.03419624,0.98632598
1756341641457,0.00346661,1.27665657,-0.00277758,0.15845814,-0.01953167,0.03373270,0.98659598
1756341641468,0.00353098,1.27655616,-0.00291514,0.15792040,-0.01969671,0.03356203,0.98668474
1756341641502,0.00371212,1.27631795,-0.00328553,0.15662798,-0.02006346,0.03313043,0.98689792
1756341641535,0.00387824,1.27619135,-0.00366378,0.15586646,-0.02030921,0.03277728,0.98702524
1756341641547,0.00393260,1.27613682,-0.00377631,0.15558216,-0.02046886,0.03259624,0.98707279
1756341641559,0.00399375,1.27607769,-0.00386667,0.15526280,-0.02054593,0.03260147,0.98712131
1756341641571,0.00405228,1.27600902,-0.00395811,0.15488233,-0.02068922,0.03251789,0.98718084
1756341641582,0.00413501,1.27593610,-0.00408328,0.15450752,-0.02080795,0.03262345,0.98723359
1756341641594,0.00421131,1.27587864,-0.00420070,0.15413148,-0.02092716,0.03264052,0.98728929
1756341641605,0.00429428,1.27583379,-0.00432730,0.15393656,-0.02107272,0.03270353,0.98731452
1756341641616,0.00438780,1.27581874,-0.00444424,0.15375579,-0.02115968,0.03255386,0.98734577
1756341641628,0.00447583,1.27582872,-0.00457251,0.15360604,-0.02147704,0.03222634,0.98737297
1756341641639,0.00455946,1.27586001,-0.00468099,0.15353390,-0.02166483,0.03202126,0.98738676
1756341641650,0.00461090,1.27589893,-0.00477350,0.15332484,-0.02190980,0.03177978,0.98742164
1756341641662,0.00466102,1.27591509,-0.00485241,0.15302337,-0.02208200,0.03162523,0.98746953
1756341641673,0.00472319,1.27589375,-0.00493181,0.15263108,-0.02233312,0.03147625,0.98752936
1756341641685,0.00480753,1.27583393,-0.00500357,0.15220776,-0.02253994,0.03135755,0.98759377
1756341641697,0.00488794,1.27577010,-0.00506103,0.15174720,-0.02277741,0.03123635,0.98766303
1756341641708,0.00497407,1.27569732,-0.00512218,0.15139330,-0.02296218,0.03104501,0.98771910
1756341641719,0.00505143,1.27562964,-0.00518334,0.15107656,-0.02325106,0.03090656,0.98776518
1756341641730,0.00513124,1.27556533,-0.00523961,0.15080430,-0.02347118,0.03089332,0.98780199
1756341641742,0.00522023,1.27548632,-0.00524521,0.15065945,-0.02364966,0.03091482,0.98781916
1756341641753,0.00530934,1.27540579,-0.00523317,0.15044933,-0.02385014,0.03094717,0.98784535
1756341641764,0.00539750,1.27531871,-0.00521457,0.15028272,-0.02406424,0.03089193,0.98786725
1756341641775,0.00546944,1.27524668,-0.00524104,0.15000037,-0.02429903,0.03074822,0.98790890
1756341641786,0.00554174,1.27517194,-0.00527060,0.14988849,-0.02445126,0.03056421,0.98792783
1756341641798,0.00561768,1.27509305,-0.00529468,0.14960673,-0.02465594,0.03057553,0.98796510
1756341641809,0.00568467,1.27503157,-0.00531292,0.14929732,-0.02483779,0.03035965,0.98801401
1756341641820,0.00575024,1.27497411,-0.00532472,0.14905226,-0.02495909,0.03030326,0.98804969
1756341641831,0.00580972,1.27492678,-0.00533271,0.14877880,-0.02505726,0.03020490,0.98809143
1756341641843,0.00584596,1.27490699,-0.00537550,0.14857406,-0.02526209,0.02990782,0.98812605
1756341641854,0.00588495,1.27491081,-0.00542045,0.14836541,-0.02542863,0.02969049,0.98815969
1756341641865,0.00592804,1.27494103,-0.00545776,0.14831819,-0.02551612,0.02959772,0.98816730
1756341641876,0.00597411,1.27497017,-0.00545692,0.14831715,-0.02558676,0.02944667,0.98817014
1756341641887,0.00600982,1.27499789,-0.00545061,0.14833650,-0.02561322,0.02933494,0.98816988
1756341641898,0.00604230,1.27501678,-0.00543404,0.14830181,-0.02571318,0.02934143,0.98817230
1756341641909,0.00607640,1.27502450,-0.00540888,0.14819342,-0.02575171,0.02931027,0.98818848
1756341641920,0.00610751,1.27502507,-0.00538278,0.14812210,-0.02581024,0.02929155,0.98819820
1756341641932,0.00613350,1.27502170,-0.00534856,0.14807514,-0.02588067,0.02930213,0.98820308
1756341641943,0.00616282,1.27502158,-0.00527179,0.14810864,-0.02593878,0.02936573,0.98819465
1756341641954,0.00619107,1.27503553,-0.00518310,0.14814919,-0.02598530,0.02938165,0.98818688
1756341641966,0.00621879,1.27504945,-0.00510037,0.14830626,-0.02605170,0.02944566,0.98815966
1756341641976,0.00624657,1.27506196,-0.00505698,0.14849745,-0.02614883,0.02952608,0.98812598
1756341641987,0.00627756,1.27507520,-0.00501561,0.14868046,-0.02618250,0.02958847,0.98809570
1756341641999,0.00630701,1.27510196,-0.00497031,0.14889148,-0.02622363,0.02956720,0.98806347
1756341642010,0.00633645,1.27513295,-0.00492609,0.14911874,-0.02626270,0.02963022,0.98802628
1756341642021,0.00636125,1.27517307,-0.00488412,0.14932866,-0.02628091,0.02970613,0.98799181
1756341642032,0.00638586,1.27521375,-0.00484121,0.14950412,-0.02629784,0.02973570,0.98796393
1756341642043,0.00637895,1.27525413,-0.00482190,0.14967680,-0.02631640,0.02971891,0.98793780
1756341642054,0.00636566,1.27529758,-0.00480783,0.14981748,-0.02636215,0.02971770,0.98791529
1756341642065,0.00635183,1.27534148,-0.00479710,0.14998383,-0.02641451,0.02967217,0.98789002
1756341642076,0.00636876,1.27538341,-0.00477016,0.15016026,-0.02645609,0.02969824,0.98786132
1756341642090,0.00639254,1.27542830,-0.00473154,0.15023102,-0.02653146,0.02960664,0.98785129
1756341642101,0.00641567,1.27544859,-0.00470698,0.15033451,-0.02656591,0.02960116,0.98783478
1756341642112,0.00643903,1.27546823,-0.00467861,0.15038145,-0.02663702,0.02953120,0.98782782
1756341642124,0.00646782,1.27547574,-0.00464928,0.15043535,-0.02667668,0.02950203,0.98781941
1756341642135,0.00649345,1.27547151,-0.00461388,0.15043070,-0.02676714,0.02948714,0.98781812
1756341642146,0.00651884,1.27545273,-0.00454652,0.15045212,-0.02685249,0.02944332,0.98781385
1756341642157,0.00654453,1.27543110,-0.00447810,0.15047076,-0.02695516,0.02937552,0.98781023
1756341642168,0.00657260,1.27541220,-0.00442231,0.15043162,-0.02708510,0.02926045,0.98781605
1756341642179,0.00660741,1.27540100,-0.00439596,0.15038195,-0.02721342,0.02923043,0.98782098
1756341642191,0.00664663,1.27538246,-0.00437534,0.15039645,-0.02733371,0.02916052,0.98781751
1756341642201,0.00668049,1.27536944,-0.00435257,0.15035018,-0.02747759,0.02913221,0.98782140
1756341642212,0.00672072,1.27535400,-0.00432801,0.15027873,-0.02759844,0.02909199,0.98783009
1756341642224,0.00675827,1.27534148,-0.00430691,0.15029208,-0.02774605,0.02899250,0.98782685
1756341642235,0.00679541,1.27533281,-0.00429070,0.15027100,-0.02789706,0.02893324,0.98782754
1756341642246,0.00679129,1.27533466,-0.00432456,0.15033948,-0.02806762,0.02883906,0.98781504
1756341642257,0.00679040,1.27533865,-0.00435841,0.15034319,-0.02822292,0.02884712,0.98780982
1756341642268,0.00679386,1.27534544,-0.00438035,0.15031181,-0.02837410,0.02872283,0.98781388
1756341642279,0.00683194,1.27534243,-0.00436378,0.15029137,-0.02848780,0.02857762,0.98781793
1756341642290,0.00686520,1.27534023,-0.00434816,0.15026202,-0.02867410,0.02855983,0.98781752
1756341642302,0.00690204,1.27532458,-0.00433850,0.15031755,-0.02878922,0.02857333,0.98780533
1756341642313,0.00693649,1.27530590,-0.00432956,0.15031115,-0.02893007,0.02872073,0.98779792
1756341642324,0.00697541,1.27528715,-0.00431788,0.15020845,-0.02898720,0.02884105,0.98780836
1756341642335,0.00701147,1.27528617,-0.00430608,0.15032161,-0.02907813,0.02890082,0.98778673
1756341642346,0.00703800,1.27530658,-0.00427449,0.15043053,-0.02924505,0.02890579,0.98776507
1756341642357,0.00707209,1.27534056,-0.00424647,0.15057470,-0.02934432,0.02874720,0.98774479
1756341642368,0.00710529,1.27538478,-0.00422728,0.15069093,-0.02953178,0.02863282,0.98772480
1756341642379,0.00715065,1.27543336,-0.00422919,0.15079983,-0.02963996,0.02863904,0.98770476
1756341642391,0.00718951,1.27547291,-0.00423038,0.15081865,-0.02973432,0.02856940,0.98770107
1756341642402,0.00721967,1.27549988,-0.00422728,0.15070529,-0.02975846,0.02854522,0.98771834
1756341642413,0.00724483,1.27551821,-0.00422561,0.15076034,-0.02981982,0.02852392,0.98770871
1756341642424,0.00726628,1.27552637,-0.00422871,0.15074957,-0.02984291,0.02856537,0.98770845
1756341642448,0.00729448,1.27552566,-0.00422752,0.15076427,-0.02983999,0.02857826,0.98770592
1756341642455,0.00728393,1.27553281,-0.00428641,0.15080868,-0.02987811,0.02845712,0.98770149
1756341642465,0.00727421,1.27551973,-0.00433397,0.15084973,-0.02986577,0.02845924,0.98769553
1756341642476,0.00728577,1.27550107,-0.00436163,0.15086031,-0.02983478,0.02846608,0.98769466
1756341642488,0.00732434,1.27546486,-0.00437164,0.15088352,-0.02981225,0.02848501,0.98769125
1756341642499,0.00736541,1.27542245,-0.00438631,0.15086826,-0.02987069,0.02845239,0.98769275
1756341642511,0.00741464,1.27538076,-0.00439310,0.15079116,-0.02991533,0.02832944,0.98770671
1756341642522,0.00747049,1.27533436,-0.00441289,0.15077406,-0.03009832,0.02807746,0.98771095
1756341642534,0.00754195,1.27529040,-0.00442517,0.15059967,-0.03023887,0.02799836,0.98773551
1756341642545,0.00761354,1.27527195,-0.00439250,0.15043849,-0.03039816,0.02779168,0.98776102
1756341642556,0.00768977,1.27525818,-0.00437069,0.15036261,-0.03059572,0.02775105,0.98776762
1756341642567,0.00777322,1.27525720,-0.00434959,0.15022225,-0.03078374,0.02760961,0.98778710
1756341642579,0.00786579,1.27524644,-0.00436914,0.15012145,-0.03095016,0.02728083,0.98780635
1756341642590,0.00796020,1.27523857,-0.00439036,0.14997059,-0.03128618,0.02706157,0.98782472
1756341642601,0.00806028,1.27523401,-0.00440454,0.14979735,-0.03154528,0.02690422,0.98784706
1756341642612,0.00815481,1.27523187,-0.00442171,0.14970570,-0.03184042,0.02665904,0.98785813
1756341642623,0.00824928,1.27522972,-0.00443375,0.14956776,-0.03204915,0.02651155,0.98787624
1756341642634,0.00833672,1.27522838,-0.00444818,0.14949604,-0.03230948,0.02642173,0.98788103
1756341642645,0.00839740,1.27522737,-0.00449443,0.14938499,-0.03253129,0.02634214,0.98789267
1756341642657,0.00845766,1.27521771,-0.00454414,0.14933163,-0.03278569,0.02623542,0.98789517
1756341642668,0.00852293,1.27520549,-0.00458825,0.14929028,-0.03305799,0.02611624,0.98789550
1756341642679,0.00861692,1.27519518,-0.00459182,0.14922775,-0.03332320,0.02603094,0.98789829
1756341642690,0.00871271,1.27518201,-0.00459957,0.14925862,-0.03361014,0.02597268,0.98788544
1756341642701,0.00880772,1.27516997,-0.00460505,0.14926735,-0.03387422,0.02591769,0.98787655
1756341642712,0.00891000,1.27515918,-0.00461030,0.14925732,-0.03413448,0.02589884,0.98786960
1756341642724,0.00901049,1.27515367,-0.00461793,0.14925479,-0.03437662,0.02591430,0.98786118
1756341642735,0.00911009,1.27515063,-0.00462246,0.14927668,-0.03463644,0.02585495,0.98785035
1756341642746,0.00922716,1.27516490,-0.00461340,0.14928959,-0.03491610,0.02579494,0.98784012
1756341642757,0.00935018,1.27518588,-0.00459385,0.14920232,-0.03519246,0.02570595,0.98784582
1756341642768,0.00947732,1.27519849,-0.00458157,0.14916414,-0.03548634,0.02570587,0.98784107
1756341642779,0.00958639,1.27519405,-0.00458860,0.14914507,-0.03580666,0.02571926,0.98783205
1756341642790,0.00969124,1.27519059,-0.00459874,0.14902513,-0.03610516,0.02574039,0.98783873
1756341642801,0.00979543,1.27519566,-0.00461459,0.14899967,-0.03643465,0.02565977,0.98783257
1756341642813,0.00989389,1.27521655,-0.00463355,0.14903425,-0.03676545,0.02543653,0.98782087
1756341642824,0.00999707,1.27523428,-0.00465918,0.14907227,-0.03709003,0.02540902,0.98780371
1756341642835,0.01008904,1.27525860,-0.00468874,0.14905832,-0.03738389,0.02528178,0.98779800
1756341642846,0.01016748,1.27528849,-0.00472379,0.14897605,-0.03762585,0.02517354,0.98780399
1756341642857,0.01023901,1.27530783,-0.00476491,0.14901624,-0.03782478,0.02508239,0.98779265
1756341642868,0.01030391,1.27532631,-0.00480092,0.14894882,-0.03804934,0.02493672,0.98779788
1756341642879,0.01037651,1.27532774,-0.00483155,0.14892602,-0.03821177,0.02478387,0.98779890
1756341642891,0.01044786,1.27531540,-0.00486696,0.14893270,-0.03839636,0.02472536,0.98779220
1756341642902,0.01051575,1.27530080,-0.00489497,0.14878981,-0.03853324,0.02460707,0.98781135
1756341642913,0.01058310,1.27526957,-0.00492620,0.14868773,-0.03869805,0.02447505,0.98782356
1756341642924,0.01065326,1.27522671,-0.00495684,0.14853960,-0.03881544,0.02438330,0.98784351
1756341642935,0.01072317,1.27517685,-0.00498033,0.14841523,-0.03899214,0.02428227,0.98785773
1756341642946,0.01079190,1.27512106,-0.00498211,0.14825914,-0.03915569,0.02411977,0.98787868
1756341642958,0.01086223,1.27507019,-0.00498021,0.14803371,-0.03931144,0.02399878,0.98790925
1756341642969,0.01093262,1.27502120,-0.00499249,0.14789260,-0.03949037,0.02394041,0.98792467
1756341642980,0.01100308,1.27497703,-0.00502324,0.14770413,-0.03964806,0.02394916,0.98794633
1756341642991,0.01106846,1.27492934,-0.00505590,0.14749789,-0.03986439,0.02392665,0.98796899
1756341643002,0.01113743,1.27488959,-0.00508058,0.14721734,-0.04003316,0.02387010,0.98800537
1756341643013,0.01121533,1.27486098,-0.00510800,0.14707274,-0.04021502,0.02385010,0.98802001
1756341643024,0.01129258,1.27484399,-0.00513577,0.14701762,-0.04042724,0.02373795,0.98802225
1756341643035,0.01136816,1.27484560,-0.00516427,0.14693701,-0.04071882,0.02356302,0.98802646
1756341643046,0.01143473,1.27486560,-0.00520301,0.14687050,-0.04099178,0.02336797,0.98802969
1756341643057,0.01149863,1.27489167,-0.00523889,0.14687291,-0.04122299,0.02306050,0.98802694
1756341643069,0.01155806,1.27491295,-0.00526845,0.14673587,-0.04152242,0.02298520,0.98803651
1756341643080,0.01161951,1.27491841,-0.00528419,0.14658914,-0.04176060,0.02292398,0.98804968
1756341643091,0.01168036,1.27490914,-0.00529444,0.14640485,-0.04195830,0.02292182,0.98806868
1756341643102,0.01173395,1.27488759,-0.00530195,0.14625290,-0.04211727,0.02283947,0.98808632
1756341643113,0.01178467,1.27486718,-0.00530422,0.14604687,-0.04238111,0.02283193,0.98810569
1756341643124,0.01183033,1.27484339,-0.00531042,0.14598410,-0.04258302,0.02271113,0.98810907
1756341643136,0.01187211,1.27481952,-0.00530875,0.14585129,-0.04279792,0.02272449,0.98811909
1756341643147,0.01189995,1.27478239,-0.00528586,0.14578001,-0.04299066,0.02282078,0.98811902
1756341643158,0.01192093,1.27474514,-0.00525308,0.14578683,-0.04314971,0.02288278,0.98810965
1756341643169,0.01193976,1.27470648,-0.00522399,0.14578470,-0.04330358,0.02300257,0.98810045
1756341643179,0.01196980,1.27468041,-0.00521517,0.14569715,-0.04345268,0.02308237,0.98810496
1756341643191,0.01200563,1.27464077,-0.00521064,0.14570472,-0.04353825,0.02326474,0.98809580
1756341643202,0.01203007,1.27460980,-0.00520456,0.14559762,-0.04374772,0.02344144,0.98809816
1756341643213,0.01205862,1.27457896,-0.00519955,0.14555840,-0.04387996,0.02352048,0.98809619
1756341643224,0.01208365,1.27456111,-0.00519216,0.14547697,-0.04403719,0.02360596,0.98809915
1756341643235,0.01210791,1.27454832,-0.00518012,0.14539939,-0.04419127,0.02377358,0.98809967
1756341643246,0.01211101,1.27455273,-0.00515759,0.14532618,-0.04441163,0.02385743,0.98809854
1756341643257,0.01211196,1.27456754,-0.00513256,0.14524782,-0.04467359,0.02390767,0.98809704
1756341643269,0.01212418,1.27458265,-0.00511014,0.14524960,-0.04487100,0.02394456,0.98808694
1756341643280,0.01215756,1.27459517,-0.00509989,0.14517451,-0.04512608,0.02403416,0.98808419
1756341643291,0.01218861,1.27460277,-0.00508976,0.14513666,-0.04538336,0.02405537,0.98807745
1756341643302,0.01221812,1.27460870,-0.00507534,0.14500729,-0.04563090,0.02415484,0.98808261
1756341643313,0.01224434,1.27460474,-0.00505996,0.14494402,-0.04590669,0.02425272,0.98807672
1756341643324,0.01227194,1.27460271,-0.00503886,0.14488229,-0.04613519,0.02429738,0.98807404
1756341643335,0.01230466,1.27459806,-0.00501525,0.14483536,-0.04640022,0.02436786,0.98806677
1756341643346,0.01234978,1.27458450,-0.00498593,0.14483227,-0.04666692,0.02451487,0.98805103
1756341643357,0.01239163,1.27456984,-0.00495708,0.14482798,-0.04691204,0.02456876,0.98803871
1756341643369,0.01242369,1.27455437,-0.00492728,0.14480992,-0.04710472,0.02472452,0.98802831
1756341643380,0.01243848,1.27454364,-0.00490344,0.14483014,-0.04728911,0.02483077,0.98801387
1756341643391,0.01245475,1.27452910,-0.00487840,0.14482636,-0.04742599,0.02497125,0.98800432
1756341643402,0.01247019,1.27452025,-0.00485325,0.14483870,-0.04759193,0.02505029,0.98799253
1756341643413,0.01248479,1.27451685,-0.00482810,0.14485852,-0.04774830,0.02510008,0.98798082
1756341643424,0.01249450,1.27451915,-0.00480735,0.14496703,-0.04790283,0.02506035,0.98795843
1756341643436,0.01250225,1.27453196,-0.00478947,0.14507218,-0.04800761,0.02506484,0.98793779
1756341643446,0.01249671,1.27457303,-0.00478923,0.14514983,-0.04808515,0.02502035,0.98792375
1756341643457,0.01249260,1.27460903,-0.00478709,0.14514747,-0.04813212,0.02501283,0.98792200
1756341643469,0.01248699,1.27463546,-0.00478089,0.14514520,-0.04826164,0.02500087,0.98791631
1756341643480,0.01249468,1.27463412,-0.00476038,0.14512703,-0.04830873,0.02499689,0.98791678
1756341643491,0.01249599,1.27463698,-0.00474274,0.14510098,-0.04838145,0.02493115,0.98791871
1756341643502,0.01250017,1.27464265,-0.00472724,0.14508201,-0.04844657,0.02492422,0.98791848
1756341643513,0.01250196,1.27464700,-0.00471532,0.14509347,-0.04851562,0.02490977,0.98791377
1756341643524,0.01250350,1.27464718,-0.00470316,0.14508080,-0.04855046,0.02489102,0.98791439
1756341643535,0.01250678,1.27463666,-0.00469506,0.14504438,-0.04858437,0.02492496,0.98791722
1756341643547,0.01251394,1.27460414,-0.00471365,0.14497538,-0.04862237,0.02494591,0.98792495
1756341643557,0.01252788,1.27456841,-0.00472653,0.14491446,-0.04858795,0.02495156,0.98793544
1756341643569,0.01253361,1.27453291,-0.00474393,0.14488301,-0.04862115,0.02498692,0.98793752
1756341643580,0.01252741,1.27451193,-0.00474191,0.14483432,-0.04863897,0.02497739,0.98794403
1756341643591,0.01252615,1.27448851,-0.00473893,0.14480745,-0.04862491,0.02499455,0.98794822
1756341643602,0.01252007,1.27446666,-0.00474048,0.14480375,-0.04862383,0.02499308,0.98794886
1756341643613,0.01251382,1.27443957,-0.00474441,0.14479783,-0.04861245,0.02500616,0.98794995
1756341643624,0.01250464,1.27440625,-0.00475252,0.14478433,-0.04861915,0.02498577,0.98795212
1756341643635,0.01250142,1.27438083,-0.00476062,0.14467693,-0.04859457,0.02496770,0.98796952
1756341643647,0.01250148,1.27438802,-0.00480235,0.14455215,-0.04862699,0.02499934,0.98798539
1756341643658,0.01250321,1.27439356,-0.00484097,0.14447474,-0.04861835,0.02504175,0.98799606
1756341643669,0.01250261,1.27439448,-0.00488269,0.14440910,-0.04863784,0.02520101,0.98800065
1756341643680,0.01249564,1.27437049,-0.00489438,0.14427421,-0.04864252,0.02544708,0.98801382
1756341643691,0.01249486,1.27434966,-0.00490522,0.14423353,-0.04858846,0.02552129,0.98802050
1756341643702,0.01249564,1.27434456,-0.00491810,0.14421990,-0.04857081,0.02551969,0.98802340
1756341643713,0.01249748,1.27435023,-0.00493324,0.14419961,-0.04858929,0.02548673,0.98802630
1756341643724,0.01250935,1.27437150,-0.00494802,0.14423873,-0.04862890,0.02527208,0.98802416
1756341643735,0.01253003,1.27440304,-0.00495899,0.14427040,-0.04870185,0.02514338,0.98801923
1756341643747,0.01255876,1.27444619,-0.00496793,0.14433713,-0.04875401,0.02503149,0.98800975
1756341643758,0.01257825,1.27447432,-0.00497591,0.14432257,-0.04881323,0.02500388,0.98800965
1756341643769,0.01259512,1.27449104,-0.00497639,0.14419372,-0.04881406,0.02504072,0.98802749
1756341643780,0.01259661,1.27447468,-0.00498140,0.14406934,-0.04884249,0.02514716,0.98804153
1756341643791,0.01259625,1.27445289,-0.00498331,0.14395149,-0.04885805,0.02514887,0.98805789
1756341643802,0.01259542,1.27442834,-0.00497854,0.14378570,-0.04889796,0.02509921,0.98808132
1756341643813,0.01259369,1.27439821,-0.00497663,0.14368804,-0.04894969,0.02509225,0.98809314
1756341643825,0.01259297,1.27436730,-0.00497520,0.14362164,-0.04898626,0.02511019,0.98810053
1756341643836,0.01258802,1.27434629,-0.00497377,0.14357353,-0.04898721,0.02516685,0.98810603
1756341643847,0.01256090,1.27437377,-0.00499713,0.14354889,-0.04895631,0.02528371,0.98810816
1756341643857,0.01253480,1.27439961,-0.00502121,0.14355054,-0.04896370,0.02539258,0.98810476
1756341643869,0.01251668,1.27441150,-0.00503695,0.14352520,-0.04897443,0.02546089,0.98810615
