UnixTime(ms),PosX,PosY,PosZ,OrientX,OrientY,OrientZ,OrientW
1756814180212,0.00126634,1.28084736,0.00047740,0.07586747,-0.00337575,0.04492781,0.99609950
1756814180224,0.00129781,1.28084314,0.00046337,0.07579004,-0.00345437,0.04491785,0.99610558
1756814180230,0.00133171,1.28083725,0.00046748,0.07571957,-0.00352015,0.04488796,0.99611206
1756814180239,0.00139058,1.28083090,0.00046872,0.07549008,-0.00369461,0.04481134,0.99613229
1756814180272,0.00156915,1.28080527,0.00044858,0.07503812,-0.00413740,0.04442261,0.99618211
1756814180305,0.00181091,1.28074493,0.00032541,0.07493879,-0.00449539,0.04429169,0.99619386
1756814180338,0.00205719,1.28066654,0.00036092,0.07482288,-0.00517354,0.04409065,0.99620820
1756814180348,0.00213898,1.28062581,0.00037535,0.07487582,-0.00526067,0.04391380,0.99621158
1756814180360,0.00222183,1.28060052,0.00038062,0.07492430,-0.00531770,0.04376938,0.99621399
1756814180371,0.00229515,1.28058130,0.00039193,0.07500525,-0.00523005,0.04371928,0.99621056
1756814180382,0.00235358,1.28057884,0.00041717,0.07509116,-0.00520970,0.04371166,0.99620453
1756814180393,0.00240134,1.28061088,0.00044437,0.07523821,-0.00521572,0.04383277,0.99618808
1756814180404,0.00245013,1.28064032,0.00047630,0.07530322,-0.00513642,0.04387607,0.99618168
1756814180416,0.00249132,1.28066810,0.00049463,0.07524594,-0.00503008,0.04387429,0.99618663
1756814180426,0.00254914,1.28067273,0.00050879,0.07513123,-0.00491263,0.04385046,0.99619692
1756814180437,0.00261931,1.28066948,0.00050499,0.07512644,-0.00489944,0.04379093,0.99619996
1756814180449,0.00268711,1.28065371,0.00049420,0.07514700,-0.00494925,0.04366000,0.99620391
1756814180460,0.00275792,1.28065242,0.00049631,0.07507040,-0.00498546,0.04356509,0.99621366
1756814180471,0.00282759,1.28065465,0.00049677,0.07499531,-0.00505726,0.04349582,0.99622198
1756814180482,0.00288777,1.28065844,0.00050645,0.07494302,-0.00518899,0.04340040,0.99622940
1756814180493,0.00293641,1.28066036,0.00048307,0.07490473,-0.00526269,0.04333575,0.99623471
1756814180504,0.00296657,1.28066311,0.00044362,0.07483946,-0.00544203,0.04337688,0.99623686
1756814180515,0.00300364,1.28066581,0.00039944,0.07484227,-0.00550012,0.04337733,0.99623631
1756814180526,0.00305206,1.28065699,0.00039776,0.07490483,-0.00560771,0.04338506,0.99623067
1756814180538,0.00309355,1.28064422,0.00039043,0.07500243,-0.00571363,0.04325042,0.99622858
1756814180549,0.00314297,1.28063719,0.00038177,0.07505359,-0.00572811,0.04315815,0.99622865
1756814180560,0.00317953,1.28063833,0.00037093,0.07512620,-0.00578271,0.04310982,0.99622495
1756814180571,0.00321303,1.28064350,0.00037110,0.07512370,-0.00580907,0.04321664,0.99622036
1756814180582,0.00323422,1.28064441,0.00038411,0.07509087,-0.00586633,0.04330279,0.99621876
1756814180593,0.00326285,1.28062644,0.00040388,0.07505343,-0.00597100,0.04338073,0.99621757
1756814180604,0.00330247,1.28059892,0.00040965,0.07501018,-0.00601642,0.04333263,0.99622265
1756814180616,0.00332776,1.28056963,0.00040303,0.07489205,-0.00601906,0.04318787,0.99623780
1756814180627,0.00334174,1.28054933,0.00037315,0.07490883,-0.00596355,0.04310048,0.99624066
1756814180638,0.00335430,1.28054442,0.00034447,0.07496154,-0.00585484,0.04318431,0.99623371
1756814180649,0.00335193,1.28055566,0.00032778,0.07491980,-0.00580369,0.04330130,0.99623207
1756814180660,0.00334772,1.28056605,0.00032529,0.07483761,-0.00577451,0.04347466,0.99623087
1756814180671,0.00333780,1.28057584,0.00033851,0.07460603,-0.00591351,0.04368088,0.99623840
1756814180682,0.00333926,1.28056627,0.00034598,0.07460677,-0.00593443,0.04364710,0.99623970
1756814180694,0.00335207,1.28054679,0.00032662,0.07459036,-0.00604261,0.04358736,0.99624290
1756814180705,0.00337112,1.28053447,0.00029416,0.07456971,-0.00607948,0.04352580,0.99624691
1756814180716,0.00338716,1.28051354,0.00024350,0.07461481,-0.00610486,0.04353337,0.99624305
1756814180727,0.00338352,1.28050233,0.00020561,0.07462969,-0.00615042,0.04355395,0.99624075
1756814180738,0.00337558,1.28048850,0.00017436,0.07468305,-0.00619687,0.04359813,0.99623453
1756814180749,0.00336194,1.28047638,0.00015940,0.07460795,-0.00623587,0.04369326,0.99623575
1756814180760,0.00334001,1.28045858,0.00015347,0.07445517,-0.00633882,0.04376763,0.99624326
1756814180772,0.00332317,1.28043967,0.00014728,0.07421765,-0.00638419,0.04375019,0.99626146
1756814180783,0.00330852,1.28040808,0.00012462,0.07415191,-0.00634109,0.04371131,0.99626834
1756814180794,0.00327893,1.28037002,0.00012740,0.07396943,-0.00630090,0.04370338,0.99628251
1756814180805,0.00325078,1.28033522,0.00013939,0.07380665,-0.00620114,0.04368768,0.99629590
1756814180816,0.00322154,1.28028722,0.00015455,0.07385846,-0.00615390,0.04368157,0.99629262
1756814180851,0.00311611,1.28019691,0.00003265,0.07367732,-0.00571988,0.04377206,0.99630464
1756814180869,0.00305806,1.28016108,-0.00005431,0.07333317,-0.00559145,0.04386167,0.99632682
1756814180882,0.00303647,1.28013748,-0.00010300,0.07300921,-0.00565600,0.04379766,0.99635307
1756814180895,0.00304192,1.28010356,-0.00015910,0.07264632,-0.00581065,0.04371435,0.99638236
1756814180907,0.00305348,1.28007757,-0.00020245,0.07234628,-0.00599926,0.04352337,0.99641143
1756814180919,0.00304952,1.28005898,-0.00023103,0.07225698,-0.00617537,0.04349304,0.99641816
1756814180930,0.00302986,1.28005604,-0.00024675,0.07229629,-0.00621342,0.04363478,0.99640887
1756814180942,0.00298566,1.28006352,-0.00026844,0.07240710,-0.00623867,0.04373566,0.99639625
1756814180954,0.00293453,1.28008609,-0.00027867,0.07254829,-0.00605632,0.04385300,0.99638195
1756814180965,0.00288386,1.28011712,-0.00027749,0.07281935,-0.00580646,0.04419212,0.99634868
1756814180977,0.00283723,1.28014857,-0.00026391,0.07318826,-0.00578772,0.04429535,0.99631717
1756814180989,0.00280513,1.28017210,-0.00023907,0.07338448,-0.00585050,0.04433367,0.99630067
1756814181000,0.00277035,1.28018339,-0.00020982,0.07345672,-0.00588811,0.04417643,0.99630210
1756814181012,0.00274127,1.28018662,-0.00018318,0.07353757,-0.00584455,0.04414039,0.99629799
1756814181023,0.00270991,1.28020023,-0.00015773,0.07358212,-0.00577306,0.04416444,0.99629406
1756814181035,0.00268598,1.28021721,-0.00012997,0.07360971,-0.00570386,0.04433939,0.99628465
1756814181046,0.00267164,1.28022973,-0.00009698,0.07359026,-0.00566977,0.04451484,0.99627845
1756814181058,0.00266368,1.28024878,-0.00005178,0.07346387,-0.00572213,0.04463621,0.99628205
1756814181069,0.00267368,1.28026239,-0.00001003,0.07332539,-0.00583431,0.04466978,0.99629010
1756814181080,0.00269702,1.28027283,0.00002538,0.07326729,-0.00593409,0.04460296,0.99629678
1756814181091,0.00275004,1.28026380,0.00003004,0.07332673,-0.00610353,0.04441110,0.99629995
1756814181103,0.00281823,1.28025230,0.00001881,0.07344122,-0.00610259,0.04420230,0.99630081
1756814181114,0.00287110,1.28025539,0.00001733,0.07348966,-0.00598315,0.04398216,0.99630770
1756814181125,0.00289535,1.28027174,0.00004005,0.07365129,-0.00598203,0.04407541,0.99629165
1756814181137,0.00289696,1.28030525,0.00008297,0.07399125,-0.00611864,0.04435466,0.99625324
1756814181148,0.00291095,1.28034735,0.00014298,0.07432004,-0.00622406,0.04442089,0.99622516
1756814181159,0.00294161,1.28038666,0.00020073,0.07466673,-0.00637123,0.04433236,0.99620225
1756814181170,0.00298111,1.28044616,0.00026087,0.07500099,-0.00649350,0.04396428,0.99619267
1756814181182,0.00303175,1.28053256,0.00033608,0.07549355,-0.00661301,0.04362632,0.99616953
1756814181193,0.00308641,1.28062854,0.00043008,0.07613051,-0.00697341,0.04356666,0.99612121
1756814181204,0.00314333,1.28073677,0.00052662,0.07713094,-0.00728019,0.04343023,0.99604801
1756814181215,0.00319593,1.28087180,0.00063023,0.07806976,-0.00761091,0.04349834,0.99596942
1756814181226,0.00324721,1.28102666,0.00072744,0.07894362,-0.00781213,0.04359791,0.99589462
1756814181238,0.00329276,1.28117467,0.00082575,0.07972077,-0.00797198,0.04362714,0.99583017
1756814181249,0.00334023,1.28132007,0.00092828,0.08031748,-0.00814929,0.04363954,0.99578024
1756814181260,0.00339555,1.28145404,0.00103807,0.08075135,-0.00830164,0.04357799,0.99574658
1756814181271,0.00346084,1.28156856,0.00114447,0.08111573,-0.00853959,0.04344626,0.99572071
1756814181282,0.00353278,1.28165950,0.00123096,0.08141396,-0.00885612,0.04324076,0.99570255
1756814181294,0.00358637,1.28174242,0.00132819,0.08173916,-0.00896305,0.04298428,0.99568606
1756814181305,0.00362961,1.28182886,0.00142260,0.08180492,-0.00890022,0.04276829,0.99569052
1756814181316,0.00365901,1.28190178,0.00151265,0.08190510,-0.00869396,0.04258039,0.99569216
1756814181322,0.00368239,1.28193757,0.00155409,0.08197065,-0.00856349,0.04249457,0.99569156
1756814181327,0.00370195,1.28196912,0.00159304,0.08208453,-0.00841236,0.04241486,0.99568687
1756814181336,0.00372493,1.28201075,0.00165179,0.08225669,-0.00822688,0.04237685,0.99567583
1756814181347,0.00374310,1.28205166,0.00171803,0.08237461,-0.00805129,0.04232405,0.99566976
1756814181358,0.00376540,1.28207932,0.00178169,0.08238405,-0.00778792,0.04213213,0.99567922
1756814181370,0.00378243,1.28208259,0.00183210,0.08234634,-0.00749301,0.04184948,0.99569652
1756814181381,0.00380217,1.28208800,0.00187339,0.08226351,-0.00721604,0.04163829,0.99571426
1756814181392,0.00382826,1.28209033,0.00191224,0.08231702,-0.00695259,0.04149193,0.99571783
1756814181403,0.00384130,1.28208282,0.00192556,0.08259037,-0.00677976,0.04151739,0.99569532
1756814181414,0.00386970,1.28207804,0.00192872,0.08287129,-0.00661166,0.04169225,0.99566580
1756814181425,0.00388343,1.28208192,0.00191668,0.08307297,-0.00662140,0.04178060,0.99564523
1756814181436,0.00389302,1.28207564,0.00190669,0.08305276,-0.00658272,0.04181028,0.99564592
1756814181447,0.00390169,1.28206371,0.00190188,0.08277639,-0.00651762,0.04185548,0.99566747
1756814181458,0.00390697,1.28203905,0.00189568,0.08277999,-0.00646819,0.04180260,0.99566971
1756814181470,0.00390664,1.28200173,0.00189389,0.08270944,-0.00640449,0.04169826,0.99568036
1756814181481,0.00390748,1.28195812,0.00187699,0.08262296,-0.00630869,0.04168534,0.99568870
1756814181492,0.00389213,1.28191968,0.00184834,0.08251939,-0.00620209,0.04169712,0.99569746
1756814181503,0.00388015,1.28188581,0.00180940,0.08258403,-0.00605754,0.04179120,0.99568905
1756814181514,0.00386929,1.28186566,0.00178289,0.08251679,-0.00605326,0.04201604,0.99568519
1756814181525,0.00386393,1.28184746,0.00176755,0.08233669,-0.00612224,0.04214395,0.99569427
1756814181536,0.00385777,1.28182273,0.00176527,0.08191652,-0.00625712,0.04212747,0.99572878
1756814181547,0.00386123,1.28178667,0.00174434,0.08168238,-0.00628174,0.04216656,0.99574621
1756814181558,0.00387635,1.28173988,0.00171134,0.08154072,-0.00629951,0.04212053,0.99575965
1756814181570,0.00387705,1.28169925,0.00168730,0.08125560,-0.00633108,0.04210035,0.99578361
1756814181581,0.00388411,1.28166704,0.00168122,0.08114009,-0.00628965,0.04215094,0.99579116
1756814181592,0.00387664,1.28166900,0.00169906,0.08116371,-0.00658140,0.04228573,0.99578163
1756814181603,0.00387190,1.28169474,0.00173855,0.08113117,-0.00685250,0.04227522,0.99578290
1756814181614,0.00388741,1.28172467,0.00179149,0.08117681,-0.00707793,0.04237568,0.99577333
1756814181625,0.00391281,1.28174383,0.00182636,0.08116706,-0.00737948,0.04230570,0.99577491
1756814181636,0.00392784,1.28176952,0.00186220,0.08112050,-0.00759858,0.04222841,0.99578034
1756814181647,0.00394459,1.28178861,0.00189237,0.08122472,-0.00757957,0.04228887,0.99576942
1756814181659,0.00394923,1.28180219,0.00192034,0.08134053,-0.00749227,0.04239271,0.99575622
1756814181670,0.00394448,1.28183088,0.00194250,0.08127748,-0.00748708,0.04245933,0.99575857
1756814181681,0.00394578,1.28184752,0.00194634,0.08122660,-0.00733424,0.04267048,0.99575483
1756814181692,0.00391193,1.28186042,0.00197904,0.08106329,-0.00719902,0.04276020,0.99576527
1756814181703,0.00390197,1.28185098,0.00200917,0.08075365,-0.00712645,0.04308766,0.99577684
1756814181714,0.00389713,1.28182208,0.00204444,0.08045055,-0.00718009,0.04306341,0.99580204
1756814181725,0.00393178,1.28180692,0.00204553,0.08019733,-0.00729167,0.04278434,0.99583368
1756814181736,0.00398488,1.28178537,0.00201875,0.08011656,-0.00740899,0.04260557,0.99584698
1756814181747,0.00403737,1.28175786,0.00197889,0.08010029,-0.00746303,0.04237508,0.99585772
1756814181759,0.00408756,1.28173563,0.00193705,0.07991443,-0.00736219,0.04206255,0.99588665
1756814181770,0.00412110,1.28171539,0.00188637,0.07983040,-0.00721214,0.04188499,0.99590197
1756814181781,0.00413023,1.28169921,0.00182793,0.07985366,-0.00709485,0.04181495,0.99590389
1756814181792,0.00414274,1.28167723,0.00180539,0.07978483,-0.00696665,0.04199842,0.99590260
1756814181803,0.00413625,1.28164407,0.00179727,0.07968491,-0.00700808,0.04212473,0.99590497
1756814181814,0.00413620,1.28159861,0.00179727,0.07964982,-0.00696741,0.04233682,0.99589907
1756814181825,0.00413476,1.28155476,0.00176892,0.07952714,-0.00709251,0.04251478,0.99590041
1756814181836,0.00415387,1.28150377,0.00173236,0.07929677,-0.00720375,0.04249893,0.99591866
1756814181847,0.00417927,1.28145519,0.00169319,0.07895042,-0.00726151,0.04238856,0.99595046
1756814181859,0.00420085,1.28141007,0.00164850,0.07861735,-0.00733090,0.04231385,0.99597947
1756814181870,0.00422124,1.28135175,0.00159356,0.07854695,-0.00733518,0.04225555,0.99598747
1756814181881,0.00424466,1.28130452,0.00153638,0.07846821,-0.00718100,0.04214860,0.99599933
1756814181892,0.00423040,1.28126231,0.00149606,0.07821325,-0.00711158,0.04217700,0.99601868
1756814181903,0.00422171,1.28122494,0.00147393,0.07804931,-0.00698099,0.04221486,0.99603086
1756814181914,0.00421164,1.28117474,0.00145879,0.07786170,-0.00703282,0.04235296,0.99603932
1756814181925,0.00421952,1.28113328,0.00143853,0.07763525,-0.00697733,0.04232722,0.99605848
1756814181936,0.00422446,1.28110076,0.00142077,0.07733349,-0.00702827,0.04236872,0.99607983
1756814181948,0.00423439,1.28107490,0.00140475,0.07717680,-0.00687280,0.04232238,0.99609504
1756814181959,0.00422369,1.28106432,0.00137767,0.07706605,-0.00673608,0.04230224,0.99610540
1756814181970,0.00420957,1.28104436,0.00133350,0.07709675,-0.00653735,0.04245179,0.99609799
1756814181981,0.00418894,1.28104861,0.00129536,0.07709060,-0.00631749,0.04252691,0.99609668
1756814181992,0.00417271,1.28105765,0.00126804,0.07715351,-0.00623766,0.04275726,0.99608245
1756814182003,0.00416554,1.28105754,0.00125247,0.07723942,-0.00627873,0.04290136,0.99606934
1756814182014,0.00415536,1.28104775,0.00123684,0.07726557,-0.00630192,0.04282701,0.99607036
1756814182025,0.00415396,1.28105446,0.00122458,0.07722659,-0.00633717,0.04278426,0.99607500
1756814182036,0.00416515,1.28106097,0.00120273,0.07716083,-0.00634686,0.04274496,0.99608172
1756814182048,0.00418008,1.28105098,0.00116928,0.07724602,-0.00641115,0.04262529,0.99607983
1756814182059,0.00419633,1.28103276,0.00112899,0.07726629,-0.00650665,0.04239307,0.99608755
1756814182070,0.00421545,1.28099850,0.00107947,0.07723907,-0.00653646,0.04217868,0.99609857
1756814182081,0.00425199,1.28098026,0.00104831,0.07694969,-0.00657704,0.04195002,0.99613035
1756814182092,0.00428029,1.28094144,0.00103050,0.07673790,-0.00683295,0.04190503,0.99614686
1756814182103,0.00431238,1.28090055,0.00101838,0.07667558,-0.00666685,0.04173750,0.99615982
1756814182114,0.00433842,1.28087062,0.00100242,0.07652725,-0.00657170,0.04173811,0.99617183
1756814182125,0.00434465,1.28084461,0.00096698,0.07631507,-0.00664669,0.04175229,0.99618702
1756814182136,0.00434979,1.28080135,0.00094098,0.07618888,-0.00642709,0.04165593,0.99620215
1756814182147,0.00434384,1.28077480,0.00091203,0.07586606,-0.00631632,0.04164986,0.99622775
1756814182159,0.00435794,1.28076343,0.00086904,0.07567954,-0.00614030,0.04163003,0.99624387
1756814182170,0.00437986,1.28075559,0.00082450,0.07564886,-0.00616802,0.04147989,0.99625229
1756814182181,0.00437859,1.28074728,0.00079308,0.07538505,-0.00624544,0.04130373,0.99627912
1756814182192,0.00435309,1.28072932,0.00079641,0.07519837,-0.00607127,0.04109699,0.99630286
1756814182203,0.00431666,1.28071422,0.00080496,0.07528960,-0.00615463,0.04102303,0.99629850
1756814182214,0.00428071,1.28069944,0.00081617,0.07537867,-0.00636306,0.04119423,0.99628340
1756814182225,0.00424925,1.28072158,0.00081575,0.07540944,-0.00632409,0.04107737,0.99628614
1756814182237,0.00422357,1.28075618,0.00082935,0.07551644,-0.00633694,0.04115141,0.99627490
1756814182248,0.00418513,1.28080553,0.00083716,0.07570371,-0.00646854,0.04135200,0.99625153
1756814182259,0.00414640,1.28084917,0.00083929,0.07616350,-0.00658383,0.04177273,0.99619818
1756814182270,0.00410623,1.28088240,0.00084203,0.07642725,-0.00668411,0.04205209,0.99616556
1756814182281,0.00405595,1.28092236,0.00084835,0.07666378,-0.00691104,0.04210820,0.99614346
1756814182292,0.00404625,1.28093839,0.00086878,0.07680171,-0.00701394,0.04228230,0.99612475
1756814182303,0.00403081,1.28093303,0.00088598,0.07711318,-0.00724668,0.04220330,0.99610237
1756814182326,0.00397976,1.28094228,0.00094992,0.07721619,-0.00757916,0.04230697,0.99608751
1756814182338,0.00393772,1.28094898,0.00098258,0.07714940,-0.00744000,0.04247555,0.99608656
1756814182349,0.00387979,1.28096873,0.00100848,0.07712817,-0.00722595,0.04260067,0.99608444
1756814182360,0.00382303,1.28098667,0.00102258,0.07721296,-0.00701001,0.04290219,0.99606647
1756814182371,0.00375872,1.28101595,0.00103489,0.07717548,-0.00674150,0.04303670,0.99606543
1756814182382,0.00370075,1.28103122,0.00104675,0.07708995,-0.00636841,0.04315978,0.99606918
1756814182393,0.00364989,1.28100965,0.00107668,0.07701377,-0.00606017,0.04328980,0.99607136
1756814182404,0.00360215,1.28098203,0.00110704,0.07725407,-0.00603810,0.04335205,0.99605017
1756814182415,0.00356150,1.28095203,0.00113533,0.07737054,-0.00599005,0.04351798,0.99603419
1756814182426,0.00351832,1.28095867,0.00115065,0.07743691,-0.00591588,0.04352030,0.99602937
1756814182438,0.00348055,1.28097354,0.00116220,0.07746834,-0.00568247,0.04350825,0.99602881
1756814182449,0.00344422,1.28100129,0.00116594,0.07757860,-0.00557502,0.04364339,0.99601493
1756814182460,0.00340248,1.28103986,0.00118464,0.07770141,-0.00556598,0.04378900,0.99599901
1756814182471,0.00337678,1.28106947,0.00120930,0.07796426,-0.00552131,0.04390359,0.99597368
1756814182482,0.00335208,1.28109822,0.00122836,0.07824163,-0.00554463,0.04389761,0.99595206
1756814182493,0.00336405,1.28113888,0.00126477,0.07853186,-0.00553606,0.04381403,0.99593294
1756814182504,0.00337990,1.28118285,0.00129932,0.07897264,-0.00547447,0.04371940,0.99590259
1756814182515,0.00339503,1.28124718,0.00134712,0.07914413,-0.00539139,0.04387908,0.99588241
1756814182527,0.00335839,1.28130359,0.00137748,0.07931805,-0.00531384,0.04400143,0.99586359
1756814182538,0.00331521,1.28134580,0.00142150,0.07960406,-0.00518592,0.04410662,0.99583679
1756814182549,0.00326567,1.28138387,0.00146556,0.07975242,-0.00506738,0.04422610,0.99582023
1756814182560,0.00321759,1.28141647,0.00149791,0.07989526,-0.00483222,0.04425845,0.99580851
1756814182571,0.00317224,1.28144448,0.00151883,0.08004229,-0.00453364,0.04432404,0.99579519
1756814182582,0.00313033,1.28147138,0.00153907,0.08007642,-0.00420303,0.04451247,0.99578549
1756814182593,0.00308257,1.28148186,0.00156438,0.08007925,-0.00396954,0.04470546,0.99577757
1756814182605,0.00302963,1.28148277,0.00160000,0.08008418,-0.00368640,0.04485728,0.99577144
1756814182615,0.00297901,1.28150129,0.00164790,0.08003721,-0.00338250,0.04493048,0.99577299
1756814182627,0.00291855,1.28152300,0.00168318,0.08022623,-0.00307307,0.04484491,0.99576264
1756814182638,0.00285728,1.28156538,0.00171572,0.08034865,-0.00284895,0.04496834,0.99574787
1756814182649,0.00280047,1.28162086,0.00174543,0.08044575,-0.00284069,0.04501364,0.99573801
1756814182660,0.00277039,1.28165123,0.00179107,0.08068280,-0.00251885,0.04545322,0.99569973
1756814182671,0.00271843,1.28168113,0.00181797,0.08133624,-0.00276266,0.04516205,0.99565917
1756814182682,0.00269949,1.28173015,0.00182106,0.08160358,-0.00292123,0.04543487,0.99562442
1756814182693,0.00268832,1.28179546,0.00186120,0.08188252,-0.00284155,0.04520194,0.99561236
1756814182705,0.00266955,1.28185882,0.00192280,0.08205475,-0.00297315,0.04506843,0.99560384
