UnixTime(ms),PosX,PosY,PosZ,OrientX,OrientY,OrientZ,OrientW
1757980875102,0.00084198,1.68308151,-0.00925636,0.05751936,-0.01476564,0.04993381,0.99698551
1757980875115,0.00082350,1.68308640,-0.00933957,0.05753309,-0.01481672,0.04993561,0.99698387
1757980875120,0.00079727,1.68308938,-0.00945139,0.05748115,-0.01491077,0.04988794,0.99698785
1757980875131,0.00075734,1.68310159,-0.00956535,0.05754358,-0.01495978,0.04989084,0.99698337
1757980875140,0.00071561,1.68311018,-0.00966001,0.05757243,-0.01500575,0.04989820,0.99698065
1757980875150,0.00065863,1.68309456,-0.00976110,0.05755155,-0.01507785,0.04989745,0.99698080
1757980875161,0.00060165,1.68301928,-0.00985456,0.05749744,-0.01510928,0.04988958,0.99698384
1757980875173,0.00054002,1.68294233,-0.00993395,0.05733051,-0.01513565,0.04991740,0.99699166
1757980875184,0.00047708,1.68288112,-0.01000047,0.05715910,-0.01513476,0.04997453,0.99699866
1757980875195,0.00039577,1.68286031,-0.01007390,0.05703645,-0.01518926,0.04999476,0.99700384
1757980875206,0.00032389,1.68284887,-0.01013803,0.05692100,-0.01512586,0.05004951,0.99700865
1757980875217,0.00023890,1.68284178,-0.01020384,0.05688490,-0.01516784,0.05007060,0.99700902
1757980875228,0.00015068,1.68283862,-0.01026678,0.05684973,-0.01518028,0.05008634,0.99701004
1757980875239,0.00006413,1.68283802,-0.01032352,0.05681292,-0.01518741,0.05009498,0.99701160
1757980875250,-0.00003552,1.68283916,-0.01038289,0.05676960,-0.01521145,0.05007941,0.99701448
1757980875262,-0.00015235,1.68284529,-0.01045942,0.05673147,-0.01526107,0.05008853,0.99701544
1757980875273,-0.00026882,1.68285668,-0.01052904,0.05674113,-0.01532283,0.05011618,0.99701255
1757980875284,-0.00037289,1.68286341,-0.01057601,0.05677080,-0.01540103,0.05018597,0.99700615
1757980875295,-0.00046921,1.68287289,-0.01058936,0.05671402,-0.01551148,0.05019103,0.99700741
1757980875306,-0.00055790,1.68286955,-0.01059556,0.05670980,-0.01560292,0.05030296,0.99700058
1757980875317,-0.00065148,1.68287408,-0.01059270,0.05660295,-0.01571187,0.05051393,0.99699428
1757980875328,-0.00075531,1.68288928,-0.01059246,0.05669289,-0.01576909,0.05052915,0.99698749
1757980875339,-0.00086057,1.68291700,-0.01059771,0.05693335,-0.01582748,0.05066372,0.99696603
1757980875351,-0.00095844,1.68295467,-0.01060677,0.05721734,-0.01586548,0.05079089,0.99694270
1757980875362,-0.00104511,1.68298554,-0.01060176,0.05745718,-0.01589841,0.05062028,0.99693706
1757980875373,-0.00113606,1.68301541,-0.01058173,0.05741302,-0.01587186,0.05053067,0.99694457
1757980875384,-0.00124538,1.68304968,-0.01055908,0.05747753,-0.01587012,0.05066856,0.99693388
1757980875395,-0.00138450,1.68308443,-0.01053977,0.05755429,-0.01579508,0.05076931,0.99692552
1757980875406,-0.00152278,1.68311828,-0.01051140,0.05754081,-0.01561052,0.05091604,0.99692172
1757980875417,-0.00166953,1.68313885,-0.01047301,0.05753553,-0.01551935,0.05112317,0.99691285
1757980875428,-0.00181115,1.68314064,-0.01042008,0.05748777,-0.01543921,0.05126000,0.99690982
1757980875439,-0.00195551,1.68312877,-0.01036763,0.05742358,-0.01539645,0.05128051,0.99691313
1757980875451,-0.00212359,1.68313473,-0.01032352,0.05732407,-0.01535907,0.05132729,0.99691703
1757980875462,-0.00230551,1.68316507,-0.01029325,0.05737184,-0.01523522,0.05149321,0.99690762
1757980875473,-0.00249195,1.68321860,-0.01025796,0.05749729,-0.01511672,0.05161768,0.99689576
1757980875484,-0.00266099,1.68327314,-0.01019669,0.05774186,-0.01503615,0.05171537,0.99687778
1757980875495,-0.00280440,1.68332225,-0.01010251,0.05805671,-0.01493587,0.05181700,0.99685573
1757980875506,-0.00293660,1.68337911,-0.01000118,0.05827653,-0.01480697,0.05194473,0.99683817
1757980875517,-0.00307274,1.68344146,-0.00989246,0.05853334,-0.01480690,0.05202298,0.99681905
1757980875528,-0.00319374,1.68350577,-0.00977588,0.05879595,-0.01473357,0.05211127,0.99680007
1757980875540,-0.00331497,1.68357134,-0.00965858,0.05899687,-0.01475103,0.05214231,0.99678631
1757980875551,-0.00341320,1.68361717,-0.00953913,0.05913108,-0.01481898,0.05210183,0.99677947
1757980875562,-0.00348246,1.68363422,-0.00942230,0.05932306,-0.01490633,0.05210021,0.99676685
1757980875573,-0.00353670,1.68365711,-0.00929713,0.05945749,-0.01502942,0.05212868,0.99675550
1757980875584,-0.00360608,1.68370008,-0.00916672,0.05969586,-0.01520081,0.05215588,0.99673723
1757980875595,-0.00369155,1.68377095,-0.00903535,0.05997403,-0.01542044,0.05223671,0.99671292
1757980875606,-0.00377762,1.68385363,-0.00891185,0.06035157,-0.01566273,0.05227133,0.99668454
1757980875618,-0.00385380,1.68392581,-0.00878358,0.06068986,-0.01586767,0.05236145,0.99665603
1757980875629,-0.00393081,1.68398041,-0.00866342,0.06094909,-0.01612506,0.05238923,0.99663462
1757980875640,-0.00400329,1.68402809,-0.00853586,0.06108566,-0.01636312,0.05243804,0.99661981
1757980875651,-0.00406861,1.68404573,-0.00842023,0.06128620,-0.01657295,0.05247640,0.99660201
1757980875662,-0.00413585,1.68405056,-0.00832319,0.06141696,-0.01691351,0.05243892,0.99659021
1757980875673,-0.00418961,1.68404901,-0.00822759,0.06158227,-0.01717472,0.05240519,0.99657732
1757980875684,-0.00424087,1.68406427,-0.00812411,0.06158214,-0.01747571,0.05241174,0.99657175
1757980875695,-0.00428128,1.68408239,-0.00801873,0.06162464,-0.01773646,0.05239835,0.99656522
1757980875707,-0.00432730,1.68410212,-0.00791860,0.06156252,-0.01811022,0.05235798,0.99656446
1757980875718,-0.00436020,1.68410885,-0.00782514,0.06157980,-0.01838998,0.05227965,0.99656238
1757980875729,-0.00439358,1.68411338,-0.00773740,0.06156815,-0.01876177,0.05224403,0.99655804
1757980875740,-0.00441444,1.68411613,-0.00765204,0.06162767,-0.01909189,0.05222955,0.99654885
1757980875751,-0.00442076,1.68411213,-0.00757384,0.06166231,-0.01949623,0.05223980,0.99653834
1757980875763,-0.00440979,1.68409985,-0.00750303,0.06173460,-0.01990762,0.05217396,0.99652918
1757980875774,-0.00438690,1.68408155,-0.00742745,0.06170360,-0.02035220,0.05212382,0.99652474
1757980875785,-0.00437009,1.68406469,-0.00735521,0.06160021,-0.02084699,0.05198473,0.99652818
1757980875796,-0.00435817,1.68405086,-0.00728154,0.06153686,-0.02135894,0.05203535,0.99651861
1757980875807,-0.00434077,1.68402666,-0.00721145,0.06147428,-0.02180383,0.05199386,0.99651500
1757980875819,-0.00432801,1.68400723,-0.00714278,0.06141926,-0.02223577,0.05192480,0.99651245
1757980875830,-0.00431657,1.68400127,-0.00708866,0.06152317,-0.02266848,0.05188321,0.99649846
1757980875841,-0.00429571,1.68400949,-0.00703406,0.06164590,-0.02312796,0.05191282,0.99647877
1757980875852,-0.00426114,1.68402088,-0.00699735,0.06179654,-0.02357445,0.05164779,0.99647275
1757980875863,-0.00421214,1.68403238,-0.00696635,0.06174274,-0.02400120,0.05144923,0.99647617
1757980875874,-0.00416362,1.68404150,-0.00692391,0.06150365,-0.02442808,0.05146315,0.99647986
1757980875885,-0.00413048,1.68403405,-0.00687265,0.06135518,-0.02477377,0.05144267,0.99648154
1757980875897,-0.00411248,1.68401670,-0.00680685,0.06120360,-0.02505552,0.05137207,0.99648746
1757980875908,-0.00409055,1.68398643,-0.00673318,0.06101961,-0.02540639,0.05129045,0.99649406
1757980875919,-0.00405669,1.68394452,-0.00665045,0.06082414,-0.02583852,0.05114516,0.99650237
1757980875930,-0.00400746,1.68390530,-0.00656199,0.06070454,-0.02627101,0.05094458,0.99650863
1757980875942,-0.00394928,1.68388045,-0.00646901,0.06061255,-0.02674872,0.05079896,0.99650895
1757980875953,-0.00388086,1.68387961,-0.00637722,0.06059720,-0.02716163,0.05061762,0.99650794
1757980875964,-0.00380790,1.68389285,-0.00629401,0.06057298,-0.02759401,0.05049623,0.99650370
1757980875975,-0.00372982,1.68390000,-0.00621104,0.06063793,-0.02800077,0.05044908,0.99649079
1757980875986,-0.00365961,1.68389153,-0.00611854,0.06067133,-0.02837499,0.05042267,0.99647951
1757980875997,-0.00359368,1.68387657,-0.00602031,0.06064163,-0.02867424,0.05040022,0.99647388
1757980876009,-0.00353277,1.68386626,-0.00591803,0.06067639,-0.02894851,0.05032778,0.99646750
1757980876020,-0.00347376,1.68386930,-0.00581312,0.06075239,-0.02918592,0.05024248,0.99646025
1757980876031,-0.00341296,1.68388146,-0.00570297,0.06085874,-0.02938110,0.05008747,0.99645582
1757980876042,-0.00335741,1.68389833,-0.00559306,0.06086356,-0.02957168,0.04988631,0.99645998
1757980876053,-0.00331008,1.68388438,-0.00550103,0.06085023,-0.02974339,0.04974669,0.99646267
1757980876064,-0.00326610,1.68385196,-0.00542426,0.06083595,-0.02989359,0.04965406,0.99646367
1757980876076,-0.00322676,1.68381673,-0.00534344,0.06085760,-0.03004421,0.04958180,0.99646141
1757980876087,-0.00317693,1.68380797,-0.00523186,0.06082085,-0.03010779,0.04947584,0.99646700
1757980876098,-0.00313425,1.68381143,-0.00511909,0.06087044,-0.03025744,0.04936712,0.99646483
1757980876109,-0.00308836,1.68381852,-0.00500059,0.06096474,-0.03038120,0.04927965,0.99645963
1757980876120,-0.00303996,1.68383449,-0.00487828,0.06105887,-0.03049480,0.04922815,0.99645294
1757980876131,-0.00298834,1.68384564,-0.00475430,0.06114674,-0.03062560,0.04917714,0.99644606
1757980876143,-0.00293362,1.68386441,-0.00462794,0.06120883,-0.03074289,0.04911402,0.99644175
1757980876154,-0.00283957,1.68383092,-0.00451374,0.06125088,-0.03081059,0.04908983,0.99643827
1757980876165,-0.00273514,1.68378711,-0.00440764,0.06127115,-0.03089038,0.04902405,0.99643779
1757980876176,-0.00263262,1.68373847,-0.00430512,0.06136321,-0.03097465,0.04897143,0.99643210
1757980876187,-0.00255895,1.68374062,-0.00418758,0.06142749,-0.03108031,0.04886457,0.99643009
1757980876198,-0.00249267,1.68375486,-0.00406718,0.06158419,-0.03118439,0.04870819,0.99642483
1757980876209,-0.00242841,1.68377048,-0.00395417,0.06175420,-0.03134714,0.04854922,0.99641696
1757980876221,-0.00234997,1.68378502,-0.00384378,0.06196391,-0.03146316,0.04846322,0.99640447
1757980876232,-0.00228071,1.68380892,-0.00374269,0.06212181,-0.03165850,0.04834394,0.99639424
1757980876243,-0.00220275,1.68383259,-0.00364137,0.06224127,-0.03177360,0.04835055,0.99638280
1757980876254,-0.00214112,1.68387944,-0.00359821,0.06236233,-0.03186825,0.04832312,0.99637354
1757980876265,-0.00208652,1.68391830,-0.00358081,0.06243940,-0.03197890,0.04827309,0.99636759
1757980876277,-0.00203681,1.68394667,-0.00356746,0.06237185,-0.03211205,0.04819518,0.99637131
1757980876288,-0.00196433,1.68392581,-0.00350881,0.06234040,-0.03225780,0.04830007,0.99636349
1757980876299,-0.00188756,1.68390709,-0.00343752,0.06227756,-0.03238018,0.04830363,0.99636328
1757980876310,-0.00180364,1.68390787,-0.00337696,0.06240917,-0.03245448,0.04824395,0.99635552
1757980876321,-0.00171614,1.68392968,-0.00333023,0.06263223,-0.03258191,0.04831978,0.99633369
1757980876332,-0.00162780,1.68395770,-0.00328708,0.06281750,-0.03267799,0.04817232,0.99632602
1757980876344,-0.00154519,1.68397963,-0.00324893,0.06284452,-0.03285335,0.04781188,0.99633591
1757980876355,-0.00145304,1.68400210,-0.00322843,0.06266074,-0.03295028,0.04769777,0.99634975
1757980876366,-0.00135911,1.68400490,-0.00321293,0.06253476,-0.03301776,0.04763592,0.99635839
1757980876377,-0.00127149,1.68399841,-0.00319362,0.06226438,-0.03306264,0.04751641,0.99637955
1757980876388,-0.00118971,1.68396664,-0.00315642,0.06206354,-0.03312532,0.04744937,0.99639319
1757980876399,-0.00110745,1.68392813,-0.00311613,0.06189617,-0.03319797,0.04733680,0.99640654
1757980876411,-0.00101686,1.68387598,-0.00308204,0.06185199,-0.03326137,0.04717243,0.99641496
1757980876422,-0.00093150,1.68383414,-0.00304842,0.06179706,-0.03336997,0.04700874,0.99642247
1757980876433,-0.00084901,1.68380380,-0.00301957,0.06172511,-0.03336244,0.04689664,0.99643247
1757980876444,-0.00077415,1.68377668,-0.00299263,0.06157385,-0.03334352,0.04688489,0.99644301
1757980876455,-0.00067818,1.68373191,-0.00300360,0.06148496,-0.03328166,0.04678838,0.99645511
1757980876466,-0.00057757,1.68366921,-0.00301242,0.06132042,-0.03322029,0.04672895,0.99647008
1757980876478,-0.00047696,1.68360251,-0.00301695,0.06111244,-0.03314918,0.04664698,0.99648907
1757980876489,-0.00040364,1.68355364,-0.00298762,0.06094437,-0.03311149,0.04653040,0.99650606
1757980876500,-0.00032115,1.68352228,-0.00295281,0.06089386,-0.03304723,0.04648797,0.99651326
1757980876511,-0.00023866,1.68350786,-0.00291896,0.06083586,-0.03304862,0.04639756,0.99652097
1757980876522,-0.00015819,1.68349946,-0.00288463,0.06076706,-0.03304884,0.04622763,0.99653306
1757980876533,-0.00007057,1.68349183,-0.00284338,0.06061268,-0.03301578,0.04611149,0.99654894
1757980876544,0.00001478,1.68348342,-0.00279284,0.06039959,-0.03302246,0.04604387,0.99656478
1757980876556,0.00010562,1.68345147,-0.00275540,0.06025009,-0.03301126,0.04597143,0.99657755
1757980876567,0.00019848,1.68341869,-0.00271344,0.06004571,-0.03297535,0.04591852,0.99659351
1757980876578,0.00029433,1.68338025,-0.00267124,0.05993420,-0.03294175,0.04586912,0.99660361
1757980876589,0.00037718,1.68336767,-0.00261545,0.05986165,-0.03297391,0.04577173,0.99661139
1757980876600,0.00047004,1.68335390,-0.00255895,0.05982776,-0.03298350,0.04572072,0.99661544
1757980876612,0.00056028,1.68335539,-0.00249529,0.05981746,-0.03302035,0.04562157,0.99661939
1757980876623,0.00064600,1.68336940,-0.00243044,0.05982849,-0.03308091,0.04550970,0.99662183
1757980876634,0.00073075,1.68338579,-0.00236416,0.05990006,-0.03310197,0.04540326,0.99662169
1757980876645,0.00081253,1.68340057,-0.00229049,0.05995423,-0.03309821,0.04530987,0.99662281
1757980876656,0.00087249,1.68336576,-0.00220752,0.05997297,-0.03311748,0.04523627,0.99662438
1757980876667,0.00093329,1.68332034,-0.00211430,0.06000624,-0.03308210,0.04517247,0.99662645
1757980876678,0.00098836,1.68327671,-0.00202107,0.06002258,-0.03306859,0.04512770,0.99662794
1757980876690,0.00105977,1.68328655,-0.00192380,0.06003341,-0.03306053,0.04502332,0.99663228
1757980876701,0.00113881,1.68329883,-0.00182915,0.06013587,-0.03305029,0.04495587,0.99662948
1757980876712,0.00121546,1.68332630,-0.00172997,0.06027738,-0.03308893,0.04483568,0.99662507
1757980876723,0.00129223,1.68335289,-0.00164008,0.06046181,-0.03313410,0.04478339,0.99661474
1757980876734,0.00136995,1.68338716,-0.00154376,0.06060848,-0.03316303,0.04476747,0.99660559
1757980876746,0.00144601,1.68341011,-0.00144958,0.06078336,-0.03319027,0.04472662,0.99659587
1757980876756,0.00146794,1.68344784,-0.00137830,0.06088913,-0.03325147,0.04462410,0.99659196
1757980876768,0.00149035,1.68347609,-0.00130391,0.06086611,-0.03331020,0.04467738,0.99658902
1757980876779,0.00151241,1.68350226,-0.00123715,0.06091948,-0.03335957,0.04472122,0.99658214
1757980876790,0.00157404,1.68351102,-0.00116539,0.06100036,-0.03340375,0.04479048,0.99657261
1757980876801,0.00164080,1.68353570,-0.00110674,0.06126720,-0.03336243,0.04491461,0.99655203
1757980876812,0.00170588,1.68357372,-0.00105858,0.06149380,-0.03338320,0.04495402,0.99653560
1757980876824,0.00177050,1.68360794,-0.00101256,0.06161662,-0.03342768,0.04473054,0.99653658
1757980876835,0.00183666,1.68363947,-0.00096273,0.06158043,-0.03348161,0.04460195,0.99654277
1757980876846,0.00190210,1.68366599,-0.00090814,0.06158691,-0.03352186,0.04461114,0.99654061
1757980876857,0.00192308,1.68369532,-0.00087118,0.06152485,-0.03349476,0.04462255,0.99654484
1757980876868,0.00192690,1.68371129,-0.00083494,0.06142278,-0.03341673,0.04466469,0.99655187
1757980876879,0.00193965,1.68371040,-0.00079918,0.06137570,-0.03328738,0.04470899,0.99655711
1757980876891,0.00199163,1.68368256,-0.00074768,0.06133765,-0.03320660,0.04472814,0.99656129
1757980876902,0.00204742,1.68364608,-0.00069976,0.06129946,-0.03317403,0.04469426,0.99656625
1757980876913,0.00210524,1.68361706,-0.00065923,0.06125961,-0.03315381,0.04464160,0.99657173
1757980876924,0.00216699,1.68360591,-0.00061941,0.06122400,-0.03314353,0.04460583,0.99657586
1757980876935,0.00222981,1.68360090,-0.00058889,0.06132382,-0.03313443,0.04454575,0.99657271
1757980876946,0.00229943,1.68360627,-0.00056171,0.06143308,-0.03315186,0.04452053,0.99656653
1757980876957,0.00236821,1.68360019,-0.00056601,0.06153891,-0.03314941,0.04451248,0.99656044
1757980876968,0.00244033,1.68358880,-0.00057077,0.06156294,-0.03318124,0.04451261,0.99655789
1757980876979,0.00251365,1.68357754,-0.00057530,0.06153476,-0.03322807,0.04449575,0.99655883
1757980876991,0.00260174,1.68357646,-0.00055575,0.06152115,-0.03330340,0.04448355,0.99655770
1757980877002,0.00268757,1.68357885,-0.00053644,0.06147303,-0.03337573,0.04438711,0.99656255
1757980877013,0.00277698,1.68357205,-0.00051761,0.06141959,-0.03342624,0.04424737,0.99657036
1757980877024,0.00287151,1.68356335,-0.00050378,0.06130491,-0.03349312,0.04414048,0.99657992
1757980877035,0.00296700,1.68355823,-0.00049090,0.06127534,-0.03356596,0.04409721,0.99658120
1757980877046,0.00306058,1.68355572,-0.00048447,0.06126686,-0.03361430,0.04407144,0.99658124
1757980877058,0.00312626,1.68353814,-0.00047684,0.06126060,-0.03362202,0.04401484,0.99658386
1757980877069,0.00319338,1.68351299,-0.00047445,0.06121686,-0.03366149,0.04400468,0.99658567
1757980877080,0.00326943,1.68348265,-0.00047684,0.06118216,-0.03366585,0.04396451,0.99658942
1757980877091,0.00336587,1.68346894,-0.00048852,0.06115481,-0.03371268,0.04391011,0.99659192
1757980877102,0.00346625,1.68345565,-0.00050378,0.06112348,-0.03373081,0.04383136,0.99659669
1757980877114,0.00356102,1.68344939,-0.00052023,0.06108197,-0.03379217,0.04368901,0.99660341
1757980877125,0.00365961,1.68344170,-0.00054431,0.06105215,-0.03382770,0.04358951,0.99660839
1757980877136,0.00375998,1.68343651,-0.00056982,0.06100845,-0.03388299,0.04349785,0.99661319
1757980877147,0.00386381,1.68343109,-0.00059509,0.06097395,-0.03392264,0.04342437,0.99661716
1757980877158,0.00394392,1.68342054,-0.00062919,0.06095127,-0.03394353,0.04334114,0.99662146
1757980877169,0.00402391,1.68341047,-0.00067186,0.06095505,-0.03394343,0.04326332,0.99662461
1757980877180,0.00410497,1.68340242,-0.00072074,0.06094112,-0.03401559,0.04318291,0.99662649
1757980877192,0.00420880,1.68340105,-0.00076413,0.06085769,-0.03405033,0.04304376,0.99663642
1757980877203,0.00431716,1.68338579,-0.00081372,0.06085557,-0.03410436,0.04298303,0.99663732
1757980877214,0.00442457,1.68338048,-0.00086355,0.06078022,-0.03418571,0.04291557,0.99664204
1757980877225,0.00453019,1.68336755,-0.00092316,0.06085928,-0.03429203,0.04281850,0.99663774
1757980877236,0.00463319,1.68335223,-0.00098562,0.06095505,-0.03433169,0.04266461,0.99663712
1757980877247,0.00474072,1.68333656,-0.00103998,0.06093063,-0.03438940,0.04269689,0.99663524
1757980877258,0.00485528,1.68328750,-0.00109863,0.06095139,-0.03439647,0.04273274,0.99663219
1757980877270,0.00496876,1.68325639,-0.00115800,0.06101170,-0.03435233,0.04267198,0.99663263
1757980877281,0.00508451,1.68325615,-0.00122404,0.06114046,-0.03430914,0.04267023,0.99662630
1757980877292,0.00519598,1.68328494,-0.00130391,0.06154513,-0.03429269,0.04256609,0.99660641
1757980877303,0.00530672,1.68329865,-0.00138450,0.06167594,-0.03431771,0.04211898,0.99661646
1757980877314,0.00541902,1.68330657,-0.00144553,0.06146586,-0.03439604,0.04174098,0.99664264
1757980877325,0.00553775,1.68330449,-0.00150371,0.06131819,-0.03449684,0.04164831,0.99665213
1757980877337,0.00565839,1.68330413,-0.00156045,0.06129474,-0.03453992,0.04151811,0.99665751
1757980877348,0.00577116,1.68330657,-0.00161219,0.06134752,-0.03458643,0.04139300,0.99665786
1757980877359,0.00588036,1.68330336,-0.00163198,0.06142879,-0.03459498,0.04129886,0.99665646
1757980877370,0.00599039,1.68329710,-0.00165200,0.06148140,-0.03465327,0.04118627,0.99665585
1757980877381,0.00610244,1.68327308,-0.00168848,0.06157393,-0.03481319,0.04110170,0.99664805
1757980877392,0.00621819,1.68325269,-0.00174260,0.06149158,-0.03488570,0.04100726,0.99665449
1757980877403,0.00633025,1.68322432,-0.00179911,0.06145625,-0.03496200,0.04099282,0.99665459
1757980877414,0.00644779,1.68320191,-0.00184989,0.06140691,-0.03498383,0.04091323,0.99666014
1757980877426,0.00656176,1.68318534,-0.00190711,0.06136817,-0.03506325,0.04084297,0.99666262
1757980877437,0.00668359,1.68316752,-0.00196338,0.06142169,-0.03514604,0.04071187,0.99666177
1757980877448,0.00680113,1.68316567,-0.00201917,0.06136726,-0.03522615,0.04058755,0.99666736
1757980877459,0.00690365,1.68320817,-0.00208616,0.06132853,-0.03527989,0.04050317,0.99667128
