UnixTime(ms),PosX,PosY,PosZ,OrientX,OrientY,OrientZ,OrientW
1755645640876,-0.40856898,0.03268510,0.36746073,0.00930420,-0.06242466,0.06828417,0.99566755
1755645640883,-0.40844554,0.03269446,0.36737061,0.00943984,-0.06276585,0.06838462,0.99563793
1755645640895,-0.40832341,0.03271276,0.36728573,0.00955058,-0.06300913,0.06839188,0.99562101
1755645640906,-0.40819967,0.03273016,0.36719179,0.00956129,-0.06320367,0.06849070,0.99560178
1755645640917,-0.40810132,0.03276068,0.36706257,0.00962157,-0.06336956,0.06852544,0.99558826
1755645640929,-0.40800834,0.03277463,0.36692142,0.00959039,-0.06358473,0.06847073,0.99557861
1755645640940,-0.40790963,0.03277743,0.36678696,0.00957171,-0.06376496,0.06835365,0.99557531
1755645640952,-0.40780854,0.03278691,0.36665010,0.00953800,-0.06401772,0.06832130,0.99556163
1755645640963,-0.40770710,0.03280002,0.36650848,0.00963476,-0.06419830,0.06832846,0.99554858
1755645640974,-0.40759659,0.03282243,0.36636925,0.00972358,-0.06428461,0.06829271,0.99554460
1755645640985,-0.40745711,0.03283376,0.36624479,0.00979648,-0.06436294,0.06830333,0.99553809
1755645640996,-0.40732235,0.03283906,0.36611557,0.00978815,-0.06438301,0.06828169,0.99553836
1755645641007,-0.40720356,0.03283769,0.36598349,0.00978233,-0.06444196,0.06824468,0.99553714
1755645641019,-0.40711719,0.03281933,0.36583042,0.00981260,-0.06443050,0.06819171,0.99554122
1755645641030,-0.40703565,0.03281611,0.36568737,0.00976258,-0.06446302,0.06805233,0.99554914
1755645641041,-0.40694177,0.03282475,0.36555290,0.00981632,-0.06449756,0.06797115,0.99555192
1755645641052,-0.40684390,0.03284788,0.36542034,0.00997077,-0.06459032,0.06795348,0.99554558
1755645641063,-0.40673709,0.03288376,0.36529779,0.01011780,-0.06461783,0.06797806,0.99554063
1755645641074,-0.40663493,0.03291285,0.36518955,0.01021584,-0.06466622,0.06799635,0.99553524
1755645641085,-0.40651238,0.03289431,0.36515903,0.01027628,-0.06465146,0.06801916,0.99553402
1755645641097,-0.40639424,0.03286982,0.36513042,0.01020624,-0.06467679,0.06803347,0.99553212
1755645641108,-0.40627789,0.03283757,0.36508465,0.01011715,-0.06469163,0.06803327,0.99553207
1755645641119,-0.40618199,0.03282607,0.36498070,0.01002308,-0.06470031,0.06796385,0.99553720
1755645641130,-0.40607905,0.03281116,0.36487770,0.00995956,-0.06465006,0.06794166,0.99554262
1755645641141,-0.40597844,0.03280866,0.36476564,0.00993733,-0.06456298,0.06796732,0.99554674
1755645641152,-0.40588236,0.03281248,0.36464882,0.01001336,-0.06445827,0.06801495,0.99554951
1755645641163,-0.40578508,0.03282237,0.36452198,0.01009330,-0.06434299,0.06806409,0.99555280
1755645641175,-0.40568560,0.03281713,0.36439705,0.01014447,-0.06422531,0.06809011,0.99555810
1755645641186,-0.40557277,0.03277797,0.36427736,0.01009446,-0.06410209,0.06811675,0.99556473
1755645641197,-0.40545869,0.03272521,0.36416292,0.00975966,-0.06403142,0.06812324,0.99557217
1755645641208,-0.40534526,0.03267020,0.36404514,0.00950358,-0.06395848,0.06802163,0.99558629
1755645641219,-0.40523380,0.03262258,0.36392212,0.00933148,-0.06393716,0.06797410,0.99559253
1755645641230,-0.40511388,0.03257632,0.36379719,0.00921462,-0.06384917,0.06797369,0.99559929
1755645641242,-0.40499812,0.03253973,0.36366558,0.00908382,-0.06380008,0.06794115,0.99560586
1755645641251,-0.40488112,0.03250229,0.36353445,0.00902765,-0.06370453,0.06793624,0.99561283
1755645641263,-0.40476167,0.03247535,0.36341333,0.00898467,-0.06357103,0.06796924,0.99561950
1755645641274,-0.40464443,0.03245145,0.36329174,0.00895878,-0.06344530,0.06797645,0.99562726
1755645641285,-0.40450311,0.03238559,0.36322403,0.00906364,-0.06329919,0.06795730,0.99563692
1755645641296,-0.40436661,0.03230888,0.36316919,0.00896834,-0.06314198,0.06779588,0.99565877
1755645641307,-0.40423942,0.03222990,0.36311102,0.00870322,-0.06304980,0.06772423,0.99567184
1755645641318,-0.40413022,0.03217542,0.36301327,0.00857253,-0.06296006,0.06775606,0.99567648
1755645641330,-0.40402532,0.03215295,0.36292171,0.00868311,-0.06286024,0.06765861,0.99568846
1755645641341,-0.40391600,0.03217250,0.36282539,0.00892941,-0.06272561,0.06769914,0.99569202
1755645641352,-0.40380847,0.03221941,0.36272192,0.00941553,-0.06261024,0.06778642,0.99568886
1755645641363,-0.40370810,0.03228480,0.36263227,0.00979232,-0.06247998,0.06767796,0.99570079
1755645641375,-0.40360576,0.03234744,0.36254835,0.01001080,-0.06237261,0.06744817,0.99572094
1755645641387,-0.40348321,0.03243256,0.36247253,0.01010791,-0.06217288,0.06723228,0.99574705
1755645641398,-0.40337908,0.03250223,0.36240578,0.01016210,-0.06183447,0.06713373,0.99577422
1755645641409,-0.40330774,0.03254336,0.36235237,0.01022837,-0.06131894,0.06700308,0.99581422
1755645641420,-0.40329385,0.03254700,0.36230564,0.01020270,-0.06073562,0.06685685,0.99586006
1755645641431,-0.40330005,0.03254449,0.36225986,0.01023039,-0.06017000,0.06680934,0.99589729
1755645641442,-0.40330863,0.03253311,0.36221743,0.01031480,-0.05960239,0.06676027,0.99593385
1755645641453,-0.40332687,0.03252369,0.36218214,0.01030965,-0.05910628,0.06669315,0.99596796
1755645641464,-0.40334308,0.03251606,0.36214304,0.01031250,-0.05858150,0.06668007,0.99599981
1755645641476,-0.40337706,0.03249133,0.36212015,0.01033927,-0.05807944,0.06671637,0.99602651
1755645641487,-0.40343589,0.03243124,0.36211491,0.01037501,-0.05759751,0.06681158,0.99604774
1755645641498,-0.40349561,0.03236741,0.36211395,0.01044481,-0.05713019,0.06690017,0.99606798
1755645641509,-0.40353429,0.03231776,0.36210823,0.01044513,-0.05668011,0.06699863,0.99608707
1755645641520,-0.40355659,0.03229213,0.36207867,0.01041683,-0.05635856,0.06704539,0.99610246
1755645641531,-0.40356565,0.03226835,0.36206341,0.01033297,-0.05606587,0.06717042,0.99611143
1755645641542,-0.40357745,0.03225034,0.36204386,0.01020852,-0.05580269,0.06726462,0.99612114
1755645641552,-0.40358865,0.03223801,0.36203671,0.01010293,-0.05551332,0.06734010,0.99613328
1755645641563,-0.40360641,0.03222317,0.36202478,0.01012274,-0.05522399,0.06739105,0.99614572
1755645641575,-0.40362942,0.03222096,0.36202765,0.01015547,-0.05495195,0.06742184,0.99615834
1755645641586,-0.40365702,0.03222907,0.36206245,0.01018955,-0.05467790,0.06739312,0.99617502
1755645641597,-0.40368342,0.03224355,0.36210012,0.01023860,-0.05447447,0.06738910,0.99618593
1755645641608,-0.40370876,0.03226155,0.36213446,0.01022648,-0.05432995,0.06732308,0.99619841
1755645641619,-0.40373594,0.03227669,0.36215401,0.01022453,-0.05417290,0.06723376,0.99621302
1755645641630,-0.40376151,0.03228372,0.36217880,0.01024238,-0.05398685,0.06723273,0.99622300
1755645641642,-0.40379322,0.03229547,0.36221552,0.01016863,-0.05375423,0.06725274,0.99623499
1755645641653,-0.40383762,0.03230345,0.36224699,0.01019857,-0.05348436,0.06729070,0.99624664
1755645641664,-0.40390098,0.03231508,0.36228704,0.01034379,-0.05319509,0.06727999,0.99626136
1755645641675,-0.40397584,0.03233826,0.36233377,0.01055502,-0.05286177,0.06727703,0.99627708
1755645641686,-0.40406531,0.03236884,0.36242104,0.01079602,-0.05246382,0.06723864,0.99629813
1755645641697,-0.40416449,0.03239626,0.36251688,0.01096170,-0.05200461,0.06727276,0.99631809
1755645641709,-0.40427899,0.03242201,0.36259985,0.01109322,-0.05153544,0.06727232,0.99634104
1755645641720,-0.40440184,0.03244430,0.36265421,0.01121807,-0.05106366,0.06732633,0.99636029
1755645641732,-0.40452868,0.03247231,0.36270809,0.01140078,-0.05057142,0.06730261,0.99638492
1755645641743,-0.40466136,0.03249574,0.36275864,0.01154213,-0.05008416,0.06729847,0.99640819
1755645641754,-0.40480185,0.03250355,0.36282206,0.01154808,-0.04959092,0.06726330,0.99643516
1755645641765,-0.40493929,0.03250581,0.36289787,0.01152202,-0.04916316,0.06730241,0.99645402
1755645641776,-0.40506351,0.03252870,0.36298990,0.01145306,-0.04879486,0.06736508,0.99646868
1755645641787,-0.40516579,0.03258973,0.36307573,0.01169772,-0.04849202,0.06743865,0.99647565
1755645641799,-0.40525496,0.03268701,0.36316299,0.01210888,-0.04830882,0.06757854,0.99647016
1755645641810,-0.40534133,0.03278905,0.36325407,0.01252610,-0.04817210,0.06769654,0.99646361
1755645641821,-0.40543026,0.03289342,0.36334419,0.01291502,-0.04820915,0.06779610,0.99645008
1755645641832,-0.40550750,0.03298330,0.36344433,0.01322480,-0.04827131,0.06791517,0.99643490
1755645641844,-0.40557671,0.03305292,0.36354446,0.01344383,-0.04840928,0.06805316,0.99641586
1755645641854,-0.40564358,0.03310782,0.36364841,0.01357348,-0.04859217,0.06816262,0.99639772
1755645641866,-0.40569752,0.03316200,0.36376238,0.01363544,-0.04879194,0.06828578,0.99637868
1755645641877,-0.40573704,0.03320426,0.36389208,0.01381103,-0.04906556,0.06834275,0.99635892
1755645641888,-0.40573847,0.03323334,0.36405897,0.01396982,-0.04931158,0.06843513,0.99633822
1755645641899,-0.40573823,0.03326154,0.36422443,0.01422441,-0.04965570,0.06850861,0.99631248
1755645641910,-0.40574646,0.03330421,0.36437321,0.01439426,-0.04995257,0.06863344,0.99628660
1755645641921,-0.40578175,0.03336495,0.36448956,0.01459076,-0.05019866,0.06869213,0.99626733
1755645641932,-0.40582180,0.03342587,0.36460304,0.01477342,-0.05046437,0.06872071,0.99624924
1755645641944,-0.40586770,0.03347307,0.36471081,0.01499497,-0.05072711,0.06872597,0.99623223
1755645641954,-0.40591216,0.03351462,0.36482620,0.01494728,-0.05094584,0.06881084,0.99621592
1755645641966,-0.40596133,0.03353864,0.36493826,0.01492650,-0.05112459,0.06891121,0.99620014
1755645641977,-0.40600348,0.03357035,0.36505461,0.01492651,-0.05131653,0.06903116,0.99618197
1755645641988,-0.40603179,0.03362805,0.36516333,0.01514028,-0.05143227,0.06915080,0.99616447
1755645641999,-0.40605313,0.03371924,0.36525965,0.01554248,-0.05155358,0.06928183,0.99614291
1755645642010,-0.40609491,0.03380519,0.36535311,0.01590535,-0.05171579,0.06931813,0.99612624
1755645642021,-0.40615386,0.03388292,0.36543941,0.01610469,-0.05189700,0.06922011,0.99612043
1755645642033,-0.40621275,0.03394550,0.36552715,0.01619816,-0.05208968,0.06925279,0.99610659
1755645642045,-0.40626931,0.03398848,0.36562586,0.01624838,-0.05223513,0.06933165,0.99609267
1755645642055,-0.40633333,0.03402352,0.36572599,0.01625390,-0.05235220,0.06932648,0.99608679
1755645642066,-0.40639806,0.03405595,0.36583757,0.01628778,-0.05248469,0.06935853,0.99607703
1755645642077,-0.40645146,0.03409427,0.36597776,0.01647059,-0.05267892,0.06947901,0.99605538
1755645642088,-0.40649492,0.03415060,0.36613894,0.01665571,-0.05300318,0.06960696,0.99602616
1755645642099,-0.40652466,0.03421456,0.36631107,0.01689190,-0.05330409,0.06971504,0.99599857
1755645642111,-0.40656579,0.03428298,0.36647129,0.01703427,-0.05362706,0.06977561,0.99597457
1755645642122,-0.40661514,0.03434008,0.36661339,0.01716186,-0.05391765,0.06985743,0.99595095
1755645642132,-0.40667415,0.03438789,0.36675644,0.01729255,-0.05418789,0.06995807,0.99592696
1755645642143,-0.40674150,0.03443527,0.36689949,0.01731650,-0.05429076,0.07005870,0.99591387
1755645642154,-0.40682209,0.03447551,0.36703634,0.01743134,-0.05433854,0.07012418,0.99590465
1755645642165,-0.40691233,0.03451145,0.36717558,0.01753897,-0.05434985,0.07014327,0.99590080
1755645642176,-0.40701270,0.03454149,0.36731005,0.01771493,-0.05439713,0.07016428,0.99589362
1755645642187,-0.40713394,0.03457355,0.36743832,0.01800545,-0.05441317,0.07027416,0.99587979
1755645642199,-0.40725648,0.03462559,0.36756277,0.01836439,-0.05437148,0.07036884,0.99586883
1755645642210,-0.40737557,0.03468555,0.36768103,0.01868359,-0.05422482,0.07045545,0.99586476
1755645642221,-0.40749210,0.03474712,0.36780071,0.01889742,-0.05402204,0.07044906,0.99587220
1755645642232,-0.40762174,0.03478944,0.36791849,0.01898573,-0.05375295,0.07042786,0.99588658
1755645642243,-0.40776557,0.03480917,0.36803102,0.01904390,-0.05337502,0.07039162,0.99590836
1755645642254,-0.40793228,0.03481871,0.36814499,0.01898414,-0.05274450,0.07029216,0.99595012
1755645642266,-0.40812945,0.03482097,0.36825085,0.01899702,-0.05191684,0.07022229,0.99599829
1755645642277,-0.40835619,0.03483009,0.36835432,0.01907809,-0.05101726,0.07011210,0.99605098
1755645642288,-0.40862560,0.03484094,0.36845398,0.01925324,-0.05001824,0.07002016,0.99610475
1755645642299,-0.40888035,0.03485918,0.36854601,0.01935755,-0.04910538,0.06990136,0.99615649
1755645642310,-0.40912497,0.03486204,0.36864233,0.01949037,-0.04807523,0.06983008,0.99620914
1755645642321,-0.40937877,0.03485763,0.36872387,0.01951900,-0.04709425,0.06988383,0.99625167
1755645642332,-0.40963709,0.03484643,0.36881161,0.01943545,-0.04609465,0.06996449,0.99629439
1755645642344,-0.40989888,0.03483438,0.36889267,0.01937025,-0.04505553,0.07012305,0.99633205
1755645642355,-0.41015589,0.03481674,0.36898327,0.01934768,-0.04393730,0.07028193,0.99637123
1755645642366,-0.41043317,0.03481269,0.36905146,0.01930718,-0.04290287,0.07043240,0.99640647
1755645642377,-0.41069400,0.03478330,0.36910963,0.01929742,-0.04182293,0.07057364,0.99644258
1755645642388,-0.41095805,0.03475064,0.36914253,0.01928265,-0.04081705,0.07065726,0.99647865
1755645642399,-0.41121900,0.03468508,0.36917877,0.01927026,-0.03979501,0.07079202,0.99651066
1755645642411,-0.41148221,0.03462887,0.36924362,0.01908834,-0.03874318,0.07085707,0.99655099
1755645642422,-0.41174865,0.03456521,0.36930895,0.01874379,-0.03767945,0.07096061,0.99659095
1755645642433,-0.41203940,0.03448784,0.36937475,0.01837497,-0.03662757,0.07106022,0.99662994
1755645642444,-0.41231513,0.03440982,0.36944056,0.01797445,-0.03552462,0.07116925,0.99666938
1755645642455,-0.41259921,0.03434390,0.36948919,0.01765787,-0.03445746,0.07123984,0.99670746
1755645642467,-0.41287661,0.03430283,0.36953306,0.01744427,-0.03339318,0.07133315,0.99674078
1755645642479,-0.41312909,0.03428280,0.36958313,0.01734745,-0.03226104,0.07142836,0.99677293
1755645642489,-0.41338015,0.03426367,0.36964321,0.01725033,-0.03113415,0.07145613,0.99680846
1755645642500,-0.41362691,0.03424078,0.36971331,0.01708607,-0.02989430,0.07150062,0.99684606
1755645642511,-0.41393000,0.03418738,0.36977053,0.01681686,-0.02855145,0.07158800,0.99688373
1755645642523,-0.41427815,0.03411824,0.36981630,0.01659812,-0.02714676,0.07166466,0.99692113
1755645642534,-0.41465175,0.03407770,0.36984968,0.01643679,-0.02560263,0.07163266,0.99696695
1755645642545,-0.41503894,0.03404611,0.36987829,0.01638404,-0.02395605,0.07156398,0.99701367
1755645642556,-0.41542709,0.03401506,0.36989832,0.01640100,-0.02229524,0.07157226,0.99705132
1755645642567,-0.41583228,0.03396302,0.36991835,0.01638385,-0.02065679,0.07160418,0.99708460
1755645642578,-0.41622055,0.03390181,0.36992979,0.01627259,-0.01898866,0.07162408,0.99711816
1755645642590,-0.41662186,0.03381020,0.36991405,0.01613029,-0.01727724,0.07151810,0.99715920
1755645642600,-0.41700524,0.03373516,0.36992168,0.01576231,-0.01551147,0.07147962,0.99719688
1755645642612,-0.41742480,0.03364944,0.36991549,0.01540840,-0.01379752,0.07152306,0.99722448
1755645642624,-0.41785431,0.03355056,0.36991978,0.01508946,-0.01197225,0.07146582,0.99725704
1755645642634,-0.41828132,0.03344697,0.36990833,0.01469199,-0.01007888,0.07148707,0.99728239
1755645642645,-0.41871881,0.03332281,0.36988974,0.01435224,-0.00820373,0.07150548,0.99730320
1755645642656,-0.41913390,0.03321105,0.36987162,0.01386002,-0.00633517,0.07145887,0.99732713
1755645642667,-0.41955703,0.03308338,0.36982727,0.01347855,-0.00451407,0.07121620,0.99735962
1755645642679,-0.41995502,0.03300965,0.36978436,0.01290292,-0.00286683,0.07101253,0.99738785
1755645642690,-0.42034018,0.03294164,0.36973667,0.01236919,-0.00127983,0.07090059,0.99740587
1755645642701,-0.42069089,0.03285909,0.36968946,0.01187395,0.00029631,0.07075172,0.99742324
1755645642712,-0.42105740,0.03272259,0.36960363,0.01131838,0.00176986,0.07064832,0.99743550
1755645642724,-0.42140877,0.03257644,0.36954308,0.01065397,0.00325657,0.07059593,0.99744278
1755645642735,-0.42172742,0.03243470,0.36947298,0.01010381,0.00468036,0.07054010,0.99744679
1755645642745,-0.42204148,0.03231102,0.36940432,0.00951617,0.00591550,0.07049561,0.99744916
1755645642756,-0.42233258,0.03217614,0.36931419,0.00907132,0.00705204,0.07042182,0.99745113
1755645642767,-0.42260599,0.03207600,0.36924267,0.00853114,0.00817629,0.07031647,0.99745474
1755645642779,-0.42286915,0.03196752,0.36915159,0.00806863,0.00915566,0.07025957,0.99745409
1755645642791,-0.42309022,0.03184777,0.36905003,0.00768906,0.01010535,0.07018867,0.99745291
1755645642801,-0.42328888,0.03173947,0.36896038,0.00722388,0.01092246,0.07019826,0.99744710
1755645642812,-0.42346597,0.03162980,0.36886692,0.00674019,0.01164148,0.07018269,0.99744345
1755645642824,-0.42362034,0.03151870,0.36876917,0.00628399,0.01219901,0.07011703,0.99744438
1755645642835,-0.42375004,0.03141946,0.36868238,0.00574254,0.01263578,0.07011409,0.99744242
1755645642845,-0.42391860,0.03131878,0.36858273,0.00528002,0.01294022,0.07009583,0.99744235
1755645642856,-0.42399335,0.03122556,0.36847973,0.00498543,0.01315402,0.07006659,0.99744313
1755645642868,-0.42404294,0.03114414,0.36836052,0.00465682,0.01319169,0.07008913,0.99744263
1755645642879,-0.42405158,0.03106099,0.36823225,0.00433569,0.01309672,0.07007227,0.99744652
1755645642890,-0.42400694,0.03096604,0.36809683,0.00396531,0.01292569,0.07012558,0.99744654
1755645642901,-0.42394245,0.03086275,0.36796141,0.00341963,0.01261236,0.07015682,0.99745038
1755645642912,-0.42386585,0.03073919,0.36780739,0.00278787,0.01224803,0.07020115,0.99745376
1755645642924,-0.42378044,0.03060061,0.36765862,0.00207645,0.01191440,0.07006964,0.99746879
1755645642934,-0.42368847,0.03045541,0.36750364,0.00129026,0.01153954,0.06990380,0.99748616
1755645642946,-0.42358434,0.03030598,0.36735487,0.00062862,0.01112467,0.06970179,0.99750564
1755645642956,-0.42346609,0.03017491,0.36720657,0.00004793,0.01071967,0.06951171,0.99752354
1755645642967,-0.42334181,0.03007442,0.36704779,-0.00038377,0.01031097,0.06939144,0.99753615
1755645642978,-0.42321610,0.02997065,0.36687613,-0.00073582,0.00999910,0.06921979,0.99755105
1755645642989,-0.42310047,0.02985549,0.36668587,-0.00105039,0.00969613,0.06901765,0.99756777
1755645643000,-0.42298710,0.02974200,0.36649466,-0.00139043,0.00949495,0.06877392,0.99758612
1755645643012,-0.42287588,0.02965492,0.36632013,-0.00177726,0.00925519,0.06858059,0.99760107
1755645643023,-0.42276692,0.02957785,0.36614609,-0.00211610,0.00908680,0.06831289,0.99762032
1755645643035,-0.42266572,0.02948868,0.36597347,-0.00257859,0.00894670,0.06805080,0.99763841
1755645643045,-0.42256463,0.02936500,0.36577606,-0.00309488,0.00885219,0.06782784,0.99765297
1755645643056,-0.42246437,0.02927667,0.36561298,-0.00355538,0.00872977,0.06762379,0.99766636
1755645643068,-0.42238009,0.02920854,0.36543846,-0.00382125,0.00866836,0.06749819,0.99767442
1755645643079,-0.42227018,0.02911007,0.36526299,-0.00392094,0.00868312,0.06753470,0.99767144
1755645643090,-0.42218530,0.02905840,0.36510897,-0.00395666,0.00873651,0.06755226,0.99766964
1755645643101,-0.42211533,0.02900755,0.36496067,-0.00398321,0.00881850,0.06754551,0.99766927
1755645643112,-0.42206335,0.02896243,0.36481571,-0.00415349,0.00893486,0.06756855,0.99766598
1755645643123,-0.42202032,0.02891499,0.36468506,-0.00440592,0.00902345,0.06759990,0.99766198
1755645643134,-0.42198151,0.02885568,0.36456347,-0.00467702,0.00909451,0.06760033,0.99766007
1755645643146,-0.42194092,0.02879292,0.36444521,-0.00496356,0.00914677,0.06765050,0.99765480
1755645643157,-0.42190051,0.02872944,0.36434174,-0.00515314,0.00919974,0.06767577,0.99765164
1755645643168,-0.42185616,0.02868247,0.36424303,-0.00530134,0.00922950,0.06771949,0.99764762
1755645643179,-0.42181778,0.02864331,0.36415195,-0.00531748,0.00926361,0.06779478,0.99764211
1755645643190,-0.42178851,0.02860552,0.36405277,-0.00523277,0.00927024,0.06786725,0.99763757
1755645643202,-0.42175567,0.02859646,0.36396980,-0.00507625,0.00929796,0.06795314,0.99763227
1755645643213,-0.42172116,0.02861810,0.36389494,-0.00486609,0.00929943,0.06796340,0.99763261
1755645643224,-0.42167920,0.02865028,0.36382627,-0.00468229,0.00930230,0.06795912,0.99763375
1755645643235,-0.42163438,0.02867079,0.36377096,-0.00459595,0.00932097,0.06800057,0.99763115
1755645643246,-0.42159677,0.02868539,0.36372089,-0.00458879,0.00929656,0.06797855,0.99763292
